Date,Low,Open,Volume,High,Close,Adjusted Close
04-10-1989,2.4375,2.46875,20636000,2.546875,2.5,1.7730255126953125
05-10-1989,2.5,2.515625,6453600,2.625,2.578125,1.8284341096878052
06-10-1989,2.546875,2.59375,2755200,2.625,2.546875,1.8062704801559448
09-10-1989,2.5,2.546875,1084000,2.546875,2.546875,1.8062704801559448
10-10-1989,2.5,2.5625,1493600,2.5625,2.53125,1.7951878309249878
11-10-1989,2.46875,2.5,1260000,2.515625,2.515625,1.7841070890426636
12-10-1989,2.515625,2.515625,602400,2.546875,2.53125,1.7951878309249878
13-10-1989,2.46875,2.53125,3970400,2.53125,2.484375,1.7619450092315674
16-10-1989,2.375,2.375,3924800,2.46875,2.46875,1.7508636713027954
17-10-1989,2.4375,2.4375,1843200,2.5,2.5,1.7730255126953125
18-10-1989,2.484375,2.5,1128000,2.5625,2.546875,1.8062704801559448
19-10-1989,2.53125,2.53125,1040000,2.546875,2.546875,1.8062704801559448
20-10-1989,2.515625,2.53125,237600,2.53125,2.53125,1.7951878309249878
23-10-1989,2.546875,2.546875,87200,2.5625,2.546875,1.8062704801559448
24-10-1989,2.53125,2.546875,689600,2.5625,2.5625,1.8173518180847168
25-10-1989,2.515625,2.546875,608000,2.578125,2.546875,1.8062704801559448
26-10-1989,2.546875,2.546875,228800,2.5625,2.546875,1.8062704801559448
27-10-1989,2.5,2.546875,456000,2.546875,2.515625,1.7841070890426636
30-10-1989,2.5,2.515625,250400,2.515625,2.5,1.7730255126953125
31-10-1989,2.5,2.5,424800,2.515625,2.5,1.7730255126953125
01-11-1989,2.515625,2.515625,715200,2.5625,2.5625,1.8173518180847168
02-11-1989,2.59375,2.59375,130400,2.640625,2.640625,1.872758150100708
03-11-1989,2.625,2.625,1118400,2.75,2.734375,1.9392478466033936
06-11-1989,2.578125,2.71875,264800,2.71875,2.578125,1.8284341096878052
07-11-1989,2.5,2.546875,727200,2.6875,2.6875,1.9060032367706299
08-11-1989,2.671875,2.6875,236800,2.71875,2.71875,1.9281654357910156
09-11-1989,2.6875,2.71875,60800,2.71875,2.6875,1.9060032367706299
10-11-1989,2.546875,2.6875,210400,2.6875,2.5625,1.8173518180847168
13-11-1989,2.515625,2.5625,92800,2.5625,2.546875,1.8062704801559448
14-11-1989,2.484375,2.578125,428000,2.578125,2.53125,1.7951878309249878
15-11-1989,2.53125,2.546875,176000,2.578125,2.5625,1.8173518180847168
16-11-1989,2.546875,2.546875,301600,2.59375,2.59375,1.8395134210586548
17-11-1989,2.59375,2.59375,249600,2.640625,2.640625,1.872758150100708
20-11-1989,2.609375,2.65625,43200,2.65625,2.609375,1.8505970239639282
21-11-1989,2.59375,2.59375,108800,2.671875,2.671875,1.894921064376831
22-11-1989,2.6875,2.6875,255200,2.75,2.75,1.9503276348114014
24-11-1989,2.78125,2.78125,572000,2.953125,2.921875,2.0722241401672363
27-11-1989,2.859375,2.90625,253600,2.9375,2.875,2.038980484008789
28-11-1989,2.828125,2.875,560000,2.875,2.828125,2.0057358741760254
29-11-1989,2.78125,2.8125,60800,2.8125,2.796875,1.983573079109192
30-11-1989,2.8125,2.8125,712800,2.90625,2.890625,2.0500614643096924
01-12-1989,2.890625,2.890625,356800,2.953125,2.90625,2.061142921447754
04-12-1989,2.875,2.9375,172000,2.984375,2.984375,2.1165506839752197
05-12-1989,2.90625,2.953125,93600,2.984375,2.90625,2.061142921447754
06-12-1989,2.90625,2.90625,668800,3.0,2.984375,2.1165506839752197
07-12-1989,2.921875,2.984375,215200,2.984375,2.953125,2.0943872928619385
08-12-1989,2.921875,2.921875,122400,2.953125,2.953125,2.0943872928619385
11-12-1989,2.9375,2.96875,306400,3.03125,3.0,2.127631187438965
12-12-1989,2.984375,3.015625,1119200,3.03125,3.015625,2.1387126445770264
13-12-1989,2.984375,3.0,400000,3.15625,3.15625,2.238445281982422
14-12-1989,3.109375,3.125,391200,3.140625,3.125,2.216282606124878
15-12-1989,3.09375,3.140625,155200,3.140625,3.109375,2.205199718475342
18-12-1989,3.03125,3.078125,224000,3.125,3.03125,2.149794101715088
19-12-1989,3.03125,3.03125,215200,3.0625,3.0625,2.17195725440979
20-12-1989,3.046875,3.0625,166400,3.109375,3.078125,2.1830379962921143
21-12-1989,3.0625,3.109375,174400,3.125,3.109375,2.205199718475342
22-12-1989,3.109375,3.125,173600,3.125,3.125,2.216282606124878
26-12-1989,3.078125,3.109375,97600,3.109375,3.078125,2.1830379962921143
27-12-1989,3.03125,3.0625,144000,3.0625,3.03125,2.149794101715088
28-12-1989,3.03125,3.046875,11200,3.046875,3.03125,2.149794101715088
29-12-1989,3.015625,3.03125,219200,3.15625,3.15625,2.238445281982422
02-01-1990,3.03125,3.125,194400,3.125,3.046875,2.160875082015991
03-01-1990,3.03125,3.0625,361600,3.0625,3.03125,2.149794101715088
04-01-1990,2.953125,3.03125,166400,3.0625,2.953125,2.0943872928619385
05-01-1990,2.859375,2.9375,100800,2.9375,2.90625,2.061142921447754
08-01-1990,2.84375,2.875,880800,2.890625,2.859375,2.0278985500335693
09-01-1990,2.8125,2.828125,282400,2.84375,2.8125,1.9946547746658325
10-01-1990,2.6875,2.765625,784000,2.765625,2.703125,1.9213542938232422
11-01-1990,2.703125,2.71875,347200,2.765625,2.75,1.9546712636947632
12-01-1990,2.6875,2.71875,159200,2.734375,2.71875,1.932459831237793
15-01-1990,2.71875,2.734375,25600,2.734375,2.71875,1.932459831237793
16-01-1990,2.625,2.6875,172800,2.703125,2.703125,1.9213542938232422
17-01-1990,2.71875,2.71875,216000,2.8125,2.71875,1.932459831237793
18-01-1990,2.6875,2.6875,157600,2.71875,2.703125,1.9213542938232422
19-01-1990,2.734375,2.734375,8800,2.75,2.75,1.9546712636947632
22-01-1990,2.71875,2.734375,56800,2.75,2.734375,1.9435665607452393
23-01-1990,2.734375,2.765625,101600,2.765625,2.75,1.9546712636947632
24-01-1990,2.6875,2.734375,26400,2.734375,2.6875,1.9102481603622437
25-01-1990,2.671875,2.6875,249600,2.71875,2.71875,1.932459831237793
26-01-1990,2.671875,2.703125,45600,2.71875,2.671875,1.8991410732269287
29-01-1990,2.625,2.6875,444000,2.6875,2.640625,1.8769294023513794
30-01-1990,2.578125,2.625,548000,2.65625,2.65625,1.8880354166030884
31-01-1990,2.6875,2.6875,757600,2.859375,2.859375,2.032414674758911
01-02-1990,2.84375,2.875,149600,2.875,2.859375,2.032414674758911
02-02-1990,2.875,2.875,720000,2.90625,2.875,2.0435214042663574
05-02-1990,2.875,2.90625,163200,2.90625,2.875,2.0435214042663574
06-02-1990,2.84375,2.875,99200,2.90625,2.890625,2.054626941680908
07-02-1990,2.90625,2.90625,32800,2.9375,2.9375,2.0879452228546143
08-02-1990,2.96875,2.96875,346400,3.125,3.046875,2.1656885147094727
09-02-1990,2.96875,3.078125,179200,3.125,3.0,2.1323697566986084
12-02-1990,2.90625,3.0,28000,3.0,2.90625,2.065732955932617
13-02-1990,2.9375,2.9375,26400,2.953125,2.953125,2.0990519523620605
14-02-1990,2.9375,2.953125,32800,2.96875,2.9375,2.0879452228546143
15-02-1990,2.953125,2.953125,152000,2.96875,2.953125,2.0990519523620605
16-02-1990,2.96875,2.96875,32000,2.96875,2.96875,2.110157012939453
20-02-1990,2.953125,2.984375,23200,2.984375,2.953125,2.0990519523620605
21-02-1990,2.90625,2.953125,553600,2.953125,2.90625,2.065732955932617
22-02-1990,2.84375,2.90625,148000,2.90625,2.84375,2.0213088989257812
23-02-1990,2.6875,2.78125,575200,2.78125,2.71875,1.932459831237793
26-02-1990,2.734375,2.734375,477600,2.75,2.75,1.9546712636947632
27-02-1990,2.765625,2.765625,357600,2.84375,2.84375,2.0213088989257812
28-02-1990,2.796875,2.8125,145600,2.828125,2.796875,1.9879908561706543
01-03-1990,2.75,2.796875,225600,2.796875,2.75,1.9546712636947632
02-03-1990,2.6875,2.75,931200,2.78125,2.703125,1.9213542938232422
05-03-1990,2.65625,2.671875,146400,2.703125,2.671875,1.8991410732269287
06-03-1990,2.625,2.671875,258400,2.734375,2.734375,1.9435665607452393
07-03-1990,2.703125,2.734375,174400,2.75,2.75,1.9546712636947632
08-03-1990,2.734375,2.75,146400,2.796875,2.78125,1.9768846035003662
09-03-1990,2.734375,2.75,194400,2.78125,2.734375,1.9435665607452393
12-03-1990,2.625,2.703125,1072800,2.71875,2.6875,1.9102481603622437
13-03-1990,2.671875,2.671875,662400,2.6875,2.6875,1.9102481603622437
14-03-1990,2.671875,2.671875,298400,2.765625,2.765625,1.9657788276672363
15-03-1990,2.71875,2.78125,192000,2.796875,2.71875,1.932459831237793
16-03-1990,2.734375,2.75,271200,2.78125,2.78125,1.9768846035003662
19-03-1990,2.75,2.75,476000,2.765625,2.765625,1.9657788276672363
20-03-1990,2.75,2.75,898400,2.90625,2.796875,1.9879908561706543
21-03-1990,2.796875,2.796875,102400,2.8125,2.796875,1.9879908561706543
22-03-1990,2.75,2.75,177600,2.765625,2.765625,1.9657788276672363
23-03-1990,2.796875,2.796875,320000,2.796875,2.796875,1.9879908561706543
26-03-1990,2.75,2.78125,37600,2.78125,2.75,1.9546712636947632
27-03-1990,2.734375,2.734375,24000,2.75,2.75,1.9546712636947632
28-03-1990,2.84375,2.84375,706400,2.9375,2.921875,2.0768396854400635
29-03-1990,2.890625,2.921875,361600,2.9375,2.90625,2.065732955932617
30-03-1990,2.921875,2.921875,161600,2.921875,2.921875,2.0768396854400635
02-04-1990,2.84375,2.921875,184800,2.921875,2.875,2.0435214042663574
03-04-1990,2.875,2.875,358400,3.03125,2.984375,2.1212642192840576
04-04-1990,2.90625,2.984375,364800,2.984375,2.90625,2.065732955932617
05-04-1990,2.90625,2.9375,373600,2.953125,2.90625,2.065732955932617
06-04-1990,2.78125,2.921875,810400,2.921875,2.78125,1.9768846035003662
09-04-1990,2.734375,2.734375,336800,2.765625,2.734375,1.9479440450668335
10-04-1990,2.71875,2.75,426400,2.8125,2.765625,1.970205545425415
11-04-1990,2.71875,2.78125,234400,2.8125,2.734375,1.9479440450668335
12-04-1990,2.59375,2.71875,456000,2.734375,2.625,1.870025634765625
16-04-1990,2.640625,2.640625,273600,2.734375,2.703125,1.925681471824646
17-04-1990,2.703125,2.71875,16800,2.71875,2.71875,1.9368126392364502
18-04-1990,2.6875,2.6875,333600,2.75,2.71875,1.9368126392364502
19-04-1990,2.671875,2.71875,207200,2.71875,2.6875,1.9145504236221313
20-04-1990,2.65625,2.671875,168800,2.6875,2.671875,1.9034181833267212
23-04-1990,2.625,2.65625,173600,2.65625,2.625,1.870025634765625
24-04-1990,2.625,2.625,458400,2.671875,2.625,1.870025634765625
25-04-1990,2.640625,2.65625,104000,2.671875,2.65625,1.892288088798523
26-04-1990,2.625,2.625,461600,2.6875,2.6875,1.9145504236221313
27-04-1990,2.6875,2.6875,133600,2.703125,2.703125,1.925681471824646
30-04-1990,2.6875,2.703125,68800,2.71875,2.71875,1.9368126392364502
01-05-1990,2.6875,2.71875,732800,2.828125,2.8125,2.0035998821258545
02-05-1990,2.765625,2.78125,575200,2.828125,2.8125,2.0035998821258545
03-05-1990,2.828125,2.84375,105600,2.859375,2.828125,2.014730453491211
04-05-1990,2.78125,2.84375,279200,2.84375,2.78125,1.9813371896743774
07-05-1990,2.78125,2.78125,32800,2.84375,2.84375,2.0258610248565674
08-05-1990,2.828125,2.84375,48800,2.84375,2.828125,2.014730453491211
09-05-1990,2.796875,2.84375,1232800,2.859375,2.796875,1.9924684762954712
10-05-1990,2.796875,2.8125,428000,2.84375,2.796875,1.9924684762954712
11-05-1990,2.828125,2.828125,172000,2.875,2.875,2.048124074935913
14-05-1990,2.75,2.890625,2418400,2.890625,2.75,1.959073781967163
15-05-1990,2.75,2.78125,5804800,2.828125,2.8125,2.0035998821258545
16-05-1990,2.8125,2.8125,367200,2.96875,2.90625,2.070385694503784
17-05-1990,2.921875,2.921875,196000,2.953125,2.953125,2.1037795543670654
18-05-1990,2.96875,2.96875,181600,3.0,3.0,2.1371734142303467
21-05-1990,2.921875,2.96875,74400,2.96875,2.953125,2.1037795543670654
22-05-1990,2.96875,2.984375,40800,2.984375,2.96875,2.11491060256958
23-05-1990,2.90625,2.96875,30400,2.96875,2.90625,2.070385694503784
24-05-1990,2.75,2.921875,483200,2.921875,2.8125,2.0035998821258545
25-05-1990,2.75,2.8125,817600,2.875,2.875,2.048124074935913
29-05-1990,2.890625,2.890625,60800,2.90625,2.90625,2.070385694503784
30-05-1990,2.921875,2.9375,129600,2.984375,2.96875,2.11491060256958
31-05-1990,2.90625,2.9375,143200,2.984375,2.96875,2.11491060256958
01-06-1990,2.953125,2.96875,47200,2.984375,2.96875,2.11491060256958
04-06-1990,2.90625,2.9375,68000,2.984375,2.984375,2.1260411739349365
05-06-1990,2.796875,2.984375,1125600,3.0,2.890625,2.0592544078826904
06-06-1990,2.875,2.890625,44000,2.90625,2.875,2.048124074935913
07-06-1990,2.859375,2.890625,212800,2.890625,2.859375,2.0369913578033447
08-06-1990,2.8125,2.875,405600,2.875,2.84375,2.0258610248565674
11-06-1990,2.84375,2.859375,48800,2.890625,2.875,2.048124074935913
12-06-1990,2.859375,2.90625,196000,3.0,2.984375,2.1260411739349365
13-06-1990,2.96875,2.96875,208000,3.09375,2.96875,2.11491060256958
14-06-1990,2.9375,2.953125,20800,2.984375,2.984375,2.1260411739349365
15-06-1990,2.921875,2.984375,158400,2.984375,2.96875,2.11491060256958
18-06-1990,2.96875,2.96875,1600,2.96875,2.96875,2.11491060256958
19-06-1990,2.875,2.9375,174400,2.9375,2.921875,2.081516742706299
20-06-1990,2.90625,2.953125,127200,2.953125,2.9375,2.0926477909088135
21-06-1990,2.921875,2.921875,6400,2.9375,2.9375,2.0926477909088135
22-06-1990,2.921875,2.9375,356800,2.953125,2.953125,2.1037795543670654
25-06-1990,2.90625,2.921875,24800,2.9375,2.921875,2.081516742706299
26-06-1990,2.859375,2.90625,207200,2.921875,2.921875,2.081516742706299
27-06-1990,2.921875,2.921875,13600,2.9375,2.921875,2.081516742706299
28-06-1990,2.9375,2.9375,157600,2.96875,2.96875,2.11491060256958
29-06-1990,2.953125,2.984375,327200,2.984375,2.96875,2.11491060256958
02-07-1990,2.875,2.953125,322400,2.953125,2.90625,2.070385694503784
03-07-1990,2.875,2.9375,308800,2.9375,2.875,2.048124074935913
05-07-1990,2.8125,2.84375,596800,2.84375,2.828125,2.014730453491211
06-07-1990,2.78125,2.78125,82400,2.796875,2.796875,1.9924684762954712
09-07-1990,2.75,2.796875,724800,2.8125,2.78125,1.9813371896743774
10-07-1990,2.765625,2.78125,1073600,2.78125,2.78125,1.9858002662658691
11-07-1990,2.78125,2.78125,776000,2.8125,2.796875,1.9969563484191895
12-07-1990,2.796875,2.796875,1208800,2.90625,2.875,2.0527360439300537
13-07-1990,2.90625,2.90625,568000,3.0,2.96875,2.1196742057800293
16-07-1990,2.96875,2.984375,680800,3.0,2.96875,2.1196742057800293
17-07-1990,2.921875,2.96875,102400,2.96875,2.921875,2.0862038135528564
18-07-1990,2.84375,2.921875,348000,2.921875,2.84375,2.030424118041992
19-07-1990,2.796875,2.8125,465600,2.875,2.875,2.0527360439300537
20-07-1990,2.890625,2.890625,51200,2.90625,2.890625,2.0638926029205322
23-07-1990,2.859375,2.875,349600,2.9375,2.9375,2.0973618030548096
24-07-1990,2.90625,2.90625,353600,3.015625,2.984375,2.130828857421875
25-07-1990,3.0,3.015625,52000,3.03125,3.03125,2.164297580718994
26-07-1990,3.03125,3.0625,80000,3.0625,3.0625,2.186609983444214
27-07-1990,2.984375,3.03125,75200,3.0625,2.984375,2.130828857421875
30-07-1990,2.984375,3.0,160800,3.0,3.0,2.1419858932495117
31-07-1990,2.953125,2.953125,175200,3.015625,3.0,2.1419858932495117
01-08-1990,3.0,3.03125,134400,3.0625,3.015625,2.153142213821411
02-08-1990,3.03125,3.125,1056800,3.171875,3.171875,2.2647035121917725
03-08-1990,3.109375,3.15625,1272000,3.265625,3.203125,2.287017345428467
06-08-1990,3.125,3.25,247200,3.265625,3.125,2.2312352657318115
07-08-1990,3.125,3.125,148800,3.140625,3.140625,2.2423911094665527
08-08-1990,3.09375,3.125,170400,3.140625,3.09375,2.2089226245880127
09-08-1990,3.0625,3.09375,296000,3.09375,3.09375,2.2089226245880127
10-08-1990,3.09375,3.09375,299200,3.109375,3.09375,2.2089226245880127
13-08-1990,3.078125,3.109375,56800,3.125,3.078125,2.1977672576904297
14-08-1990,3.0625,3.109375,49600,3.109375,3.0625,2.186609983444214
15-08-1990,3.0625,3.0625,196000,3.15625,3.125,2.2312352657318115
16-08-1990,3.078125,3.109375,140000,3.125,3.109375,2.220078229904175
17-08-1990,3.125,3.140625,201600,3.1875,3.140625,2.2423911094665527
20-08-1990,3.046875,3.15625,239200,3.15625,3.046875,2.1754558086395264
21-08-1990,3.0625,3.0625,452000,3.09375,3.078125,2.1977672576904297
22-08-1990,3.015625,3.0625,333600,3.09375,3.015625,2.153142213821411
23-08-1990,2.9375,3.0,364000,3.0,2.96875,2.1196742057800293
24-08-1990,2.921875,2.921875,326400,3.0,3.0,2.1419858932495117
27-08-1990,2.953125,3.0,88000,3.0,2.953125,2.108517646789551
28-08-1990,2.953125,2.953125,8000,2.984375,2.984375,2.130828857421875
29-08-1990,2.9375,3.015625,140800,3.015625,2.9375,2.0973618030548096
30-08-1990,2.90625,2.953125,65600,2.984375,2.984375,2.130828857421875
31-08-1990,2.890625,2.953125,256800,2.984375,2.921875,2.0862038135528564
04-09-1990,2.9375,2.9375,20000,2.953125,2.953125,2.108517646789551
05-09-1990,2.953125,2.953125,223200,3.1875,3.171875,2.2647035121917725
06-09-1990,3.1875,3.203125,317600,3.296875,3.296875,2.3539535999298096
07-09-1990,3.296875,3.296875,160800,3.359375,3.359375,2.398578643798828
10-09-1990,3.328125,3.328125,1408800,3.390625,3.359375,2.398578643798828
11-09-1990,3.1875,3.375,963200,3.375,3.3125,2.3651092052459717
12-09-1990,3.265625,3.34375,336000,3.34375,3.3125,2.3651092052459717
13-09-1990,3.25,3.3125,405600,3.328125,3.25,2.3204843997955322
14-09-1990,3.25,3.25,209600,3.390625,3.390625,2.4208903312683105
17-09-1990,3.375,3.390625,1116000,3.46875,3.46875,2.476670742034912
18-09-1990,3.46875,3.46875,776800,3.765625,3.671875,2.621701717376709
19-09-1990,3.65625,3.6875,1624800,3.6875,3.65625,2.6105449199676514
20-09-1990,3.53125,3.65625,432000,3.65625,3.53125,2.5212960243225098
21-09-1990,3.46875,3.484375,521600,3.5625,3.5625,2.5436079502105713
24-09-1990,3.484375,3.5625,112800,3.5625,3.515625,2.510141134262085
25-09-1990,3.5,3.5,221600,3.515625,3.515625,2.510141134262085
26-09-1990,3.453125,3.515625,55200,3.515625,3.46875,2.476670742034912
27-09-1990,3.375,3.4375,72800,3.453125,3.375,2.409733533859253
28-09-1990,3.28125,3.375,163200,3.375,3.34375,2.387422800064087
01-10-1990,3.296875,3.328125,455200,3.390625,3.34375,2.387422800064087
02-10-1990,3.328125,3.359375,72000,3.359375,3.359375,2.398578643798828
03-10-1990,3.3125,3.34375,26400,3.34375,3.34375,2.387422800064087
04-10-1990,3.25,3.34375,313600,3.34375,3.25,2.3204843997955322
05-10-1990,3.1875,3.234375,550400,3.296875,3.1875,2.2758595943450928
08-10-1990,3.1875,3.203125,411200,3.234375,3.1875,2.2758595943450928
09-10-1990,3.203125,3.203125,298400,3.375,3.34375,2.3921117782592773
10-10-1990,3.21875,3.34375,200000,3.34375,3.234375,2.313865900039673
11-10-1990,3.203125,3.25,34400,3.25,3.21875,2.302687883377075
12-10-1990,3.171875,3.1875,89600,3.203125,3.203125,2.291508913040161
15-10-1990,3.15625,3.203125,36800,3.203125,3.15625,2.2579755783081055
16-10-1990,3.109375,3.140625,153600,3.15625,3.109375,2.2244410514831543
17-10-1990,3.09375,3.109375,11200,3.125,3.125,2.2356185913085938
18-10-1990,3.109375,3.109375,113600,3.125,3.109375,2.2244410514831543
19-10-1990,3.078125,3.109375,36800,3.109375,3.09375,2.2132625579833984
22-10-1990,3.0625,3.109375,68000,3.109375,3.0625,2.190905809402466
23-10-1990,3.0625,3.0625,17600,3.109375,3.109375,2.2244410514831543
24-10-1990,3.125,3.125,120000,3.15625,3.15625,2.2579755783081055
25-10-1990,3.1875,3.1875,112800,3.328125,3.328125,2.380934953689575
26-10-1990,3.3125,3.3125,22400,3.359375,3.359375,2.4032905101776123
29-10-1990,3.359375,3.375,16000,3.375,3.359375,2.4032905101776123
30-10-1990,3.28125,3.34375,29600,3.359375,3.296875,2.3585782051086426
31-10-1990,3.3125,3.3125,366400,3.453125,3.375,2.414468765258789
01-11-1990,3.359375,3.375,163200,3.375,3.375,2.414468765258789
02-11-1990,3.375,3.375,469600,3.53125,3.5,2.5038936138153076
05-11-1990,3.46875,3.53125,426400,3.546875,3.46875,2.481537103652954
06-11-1990,3.421875,3.484375,8800,3.484375,3.421875,2.448002576828003
07-11-1990,3.375,3.421875,148000,3.421875,3.375,2.414468765258789
08-11-1990,3.34375,3.34375,37600,3.390625,3.390625,2.425647258758545
09-11-1990,3.375,3.375,397600,3.4375,3.421875,2.448002576828003
12-11-1990,3.328125,3.390625,76800,3.390625,3.328125,2.380934953689575
13-11-1990,3.109375,3.15625,208000,3.15625,3.109375,2.2244410514831543
14-11-1990,3.109375,3.125,75200,3.1875,3.1875,2.2803313732147217
15-11-1990,3.125,3.15625,45600,3.171875,3.140625,2.2467963695526123
16-11-1990,3.09375,3.140625,300800,3.15625,3.15625,2.2579755783081055
19-11-1990,2.984375,3.15625,456800,3.15625,2.984375,2.135016679763794
20-11-1990,2.84375,2.96875,329600,2.96875,2.921875,2.0903027057647705
21-11-1990,2.890625,2.90625,32800,2.96875,2.96875,2.123837471008301
23-11-1990,2.96875,2.96875,18400,2.984375,2.96875,2.123837471008301
26-11-1990,2.96875,2.984375,40000,3.0,2.96875,2.123837471008301
27-11-1990,2.9375,2.984375,39200,2.984375,2.953125,2.1126608848571777
28-11-1990,2.90625,2.953125,145600,2.953125,2.921875,2.0903027057647705
29-11-1990,2.90625,2.90625,36800,2.90625,2.90625,2.0791263580322266
30-11-1990,2.765625,2.875,236000,2.890625,2.8125,2.0120575428009033
03-12-1990,2.609375,2.796875,366400,2.796875,2.75,1.9673446416854858
04-12-1990,2.671875,2.734375,230400,2.734375,2.71875,1.9449882507324219
05-12-1990,2.71875,2.71875,432000,2.796875,2.78125,1.9897013902664185
06-12-1990,2.734375,2.78125,248800,2.8125,2.75,1.9673446416854858
07-12-1990,2.625,2.71875,257600,2.71875,2.71875,1.9449882507324219
10-12-1990,2.703125,2.734375,179200,2.734375,2.71875,1.9449882507324219
11-12-1990,2.703125,2.703125,981600,2.78125,2.734375,1.9561667442321777
12-12-1990,2.734375,2.75,493600,2.78125,2.78125,1.9897013902664185
13-12-1990,2.71875,2.75,908000,2.75,2.71875,1.9449882507324219
14-12-1990,2.65625,2.71875,207200,2.78125,2.78125,1.9897013902664185
17-12-1990,2.734375,2.796875,89600,2.828125,2.734375,1.9561667442321777
18-12-1990,2.703125,2.765625,153600,2.796875,2.703125,1.9338098764419556
19-12-1990,2.640625,2.703125,277600,2.734375,2.640625,1.889097809791565
20-12-1990,2.546875,2.609375,1007200,2.609375,2.5625,1.8332087993621826
21-12-1990,2.484375,2.484375,980000,2.515625,2.5,1.788495421409607
24-12-1990,2.5,2.5,222400,2.546875,2.546875,1.8220289945602417
26-12-1990,2.5625,2.5625,93600,2.75,2.75,1.9673446416854858
27-12-1990,2.71875,2.75,51200,2.75,2.734375,1.9561667442321777
28-12-1990,2.65625,2.71875,49600,2.71875,2.65625,1.9002759456634521
31-12-1990,2.53125,2.65625,364800,2.65625,2.65625,1.9002759456634521
02-01-1991,2.59375,2.625,36000,2.625,2.59375,1.8555632829666138
03-01-1991,2.484375,2.59375,413600,2.59375,2.484375,1.7773176431655884
04-01-1991,2.328125,2.4375,216800,2.4375,2.328125,1.6655350923538208
07-01-1991,2.21875,2.296875,599200,2.3125,2.265625,1.6208237409591675
08-01-1991,2.15625,2.25,679200,2.265625,2.15625,1.5425766706466675
09-01-1991,2.140625,2.171875,572000,2.1875,2.140625,1.535851240158081
10-01-1991,2.09375,2.125,296000,2.140625,2.140625,1.535851240158081
11-01-1991,2.109375,2.109375,278400,2.21875,2.21875,1.591903805732727
14-01-1991,2.21875,2.234375,172800,2.265625,2.25,1.6143237352371216
15-01-1991,2.171875,2.25,92800,2.25,2.234375,1.6031147241592407
16-01-1991,2.171875,2.234375,50400,2.25,2.203125,1.5806934833526611
17-01-1991,2.03125,2.1875,1341600,2.25,2.203125,1.5806934833526611
18-01-1991,2.15625,2.203125,275200,2.21875,2.1875,1.5694823265075684
21-01-1991,2.0625,2.15625,550400,2.15625,2.125,1.5246397256851196
22-01-1991,2.125,2.15625,174400,2.171875,2.125,1.5246397256851196
23-01-1991,2.140625,2.140625,837600,2.265625,2.25,1.6143237352371216
24-01-1991,2.265625,2.3125,495200,2.34375,2.28125,1.6367462873458862
25-01-1991,2.21875,2.3125,817600,2.375,2.25,1.6143237352371216
28-01-1991,2.203125,2.28125,679200,2.296875,2.234375,1.6031147241592407
29-01-1991,2.25,2.25,99200,2.265625,2.25,1.6143237352371216
30-01-1991,2.203125,2.21875,132000,2.25,2.234375,1.6031147241592407
31-01-1991,2.15625,2.21875,384800,2.21875,2.171875,1.558272123336792
01-02-1991,2.15625,2.15625,869600,2.21875,2.21875,1.591903805732727
04-02-1991,2.203125,2.21875,961600,2.28125,2.25,1.6143237352371216
05-02-1991,2.25,2.25,1217600,2.375,2.28125,1.6367462873458862
06-02-1991,2.28125,2.28125,1186400,2.5,2.484375,1.7824841737747192
07-02-1991,2.546875,2.546875,1224000,2.78125,2.6875,1.9282207489013672
08-02-1991,2.640625,2.65625,94400,2.6875,2.671875,1.9170100688934326
11-02-1991,2.640625,2.6875,307200,2.75,2.703125,1.9394317865371704
12-02-1991,2.59375,2.734375,216000,2.734375,2.59375,1.8609575033187866
13-02-1991,2.625,2.625,45600,2.703125,2.703125,1.9394317865371704
14-02-1991,2.515625,2.6875,148800,2.6875,2.515625,1.8049052953720093
15-02-1991,2.484375,2.484375,356800,2.609375,2.609375,1.8721692562103271
19-02-1991,2.515625,2.59375,160800,2.59375,2.546875,1.8273253440856934
20-02-1991,2.515625,2.546875,219200,2.625,2.625,1.8833787441253662
21-02-1991,2.59375,2.609375,188000,2.625,2.59375,1.8609575033187866
22-02-1991,2.453125,2.59375,408000,2.59375,2.453125,1.7600630521774292
25-02-1991,2.328125,2.453125,88800,2.453125,2.328125,1.6703768968582153
26-02-1991,2.265625,2.3125,776800,2.328125,2.3125,1.6591668128967285
27-02-1991,2.34375,2.34375,1544000,2.453125,2.4375,1.748852252960205
28-02-1991,2.453125,2.46875,578400,2.59375,2.59375,1.8609575033187866
01-03-1991,2.53125,2.59375,692800,2.59375,2.546875,1.8273253440856934
04-03-1991,2.546875,2.546875,555200,2.609375,2.59375,1.8609575033187866
05-03-1991,2.5625,2.5625,418400,2.578125,2.578125,1.8497473001480103
06-03-1991,2.546875,2.546875,180800,2.59375,2.5625,1.8385381698608398
07-03-1991,2.5625,2.5625,280800,2.625,2.625,1.8833787441253662
08-03-1991,2.59375,2.625,442400,2.78125,2.671875,1.9170100688934326
11-03-1991,2.6875,2.6875,116000,2.75,2.71875,1.9506423473358154
12-03-1991,2.6875,2.75,163200,2.75,2.6875,1.9282207489013672
13-03-1991,2.59375,2.671875,147200,2.671875,2.59375,1.8609575033187866
14-03-1991,2.546875,2.578125,184000,2.59375,2.5625,1.8385381698608398
15-03-1991,2.546875,2.546875,289600,2.65625,2.625,1.8833787441253662
18-03-1991,2.625,2.640625,136000,2.6875,2.6875,1.9282207489013672
19-03-1991,2.609375,2.65625,172000,2.65625,2.625,1.8833787441253662
20-03-1991,2.625,2.625,71200,2.65625,2.65625,1.905800223350525
21-03-1991,2.65625,2.671875,327200,2.734375,2.734375,1.961853265762329
22-03-1991,2.703125,2.734375,93600,2.734375,2.703125,1.9394317865371704
25-03-1991,2.640625,2.71875,115200,2.71875,2.703125,1.9394317865371704
26-03-1991,2.625,2.671875,447200,2.6875,2.65625,1.905800223350525
27-03-1991,2.578125,2.640625,86400,2.640625,2.578125,1.8497473001480103
28-03-1991,2.515625,2.578125,70400,2.59375,2.515625,1.8049052953720093
01-04-1991,2.453125,2.53125,128000,2.53125,2.453125,1.7600630521774292
02-04-1991,2.359375,2.46875,367200,2.46875,2.375,1.7040094137191772
03-04-1991,2.3125,2.359375,1358400,2.4375,2.3125,1.6591668128967285
04-04-1991,2.34375,2.34375,1049600,2.40625,2.40625,1.7264305353164673
05-04-1991,2.421875,2.421875,73600,2.484375,2.484375,1.7824841737747192
08-04-1991,2.4375,2.46875,24000,2.46875,2.4375,1.748852252960205
09-04-1991,2.375,2.40625,198400,2.4375,2.4375,1.748852252960205
10-04-1991,2.34375,2.421875,198400,2.421875,2.390625,1.7196297645568848
11-04-1991,2.359375,2.40625,255200,2.4375,2.40625,1.7308685779571533
12-04-1991,2.390625,2.40625,398400,2.46875,2.46875,1.7758266925811768
15-04-1991,2.5,2.5,258400,2.5625,2.546875,1.8320232629776
16-04-1991,2.53125,2.53125,468000,2.640625,2.625,1.8882203102111816
17-04-1991,2.578125,2.640625,662400,2.640625,2.578125,1.8545024394989014
18-04-1991,2.609375,2.609375,68800,2.640625,2.625,1.8882203102111816
19-04-1991,2.5625,2.609375,20000,2.625,2.578125,1.8545024394989014
22-04-1991,2.484375,2.578125,263200,2.578125,2.5,1.798305630683899
23-04-1991,2.453125,2.484375,69600,2.5,2.5,1.798305630683899
24-04-1991,2.46875,2.5,44800,2.5,2.5,1.798305630683899
25-04-1991,2.46875,2.484375,70400,2.484375,2.46875,1.7758266925811768
26-04-1991,2.421875,2.453125,24000,2.453125,2.4375,1.7533482313156128
29-04-1991,2.34375,2.421875,373600,2.421875,2.34375,1.685911774635315
30-04-1991,2.328125,2.375,1024800,2.375,2.375,1.7083898782730103
01-05-1991,2.34375,2.375,403200,2.421875,2.421875,1.7421091794967651
02-05-1991,2.375,2.40625,714400,2.40625,2.375,1.7083898782730103
03-05-1991,2.359375,2.40625,464000,2.4375,2.390625,1.7196297645568848
06-05-1991,2.359375,2.375,11200,2.375,2.359375,1.6971498727798462
07-05-1991,2.28125,2.375,360800,2.375,2.34375,1.685911774635315
08-05-1991,2.328125,2.34375,567200,2.453125,2.4375,1.7533482313156128
09-05-1991,2.40625,2.453125,150400,2.46875,2.46875,1.7758266925811768
10-05-1991,2.375,2.453125,88800,2.453125,2.375,1.7083898782730103
13-05-1991,2.28125,2.359375,872000,2.359375,2.28125,1.6409540176391602
14-05-1991,2.28125,2.28125,366400,2.375,2.3125,1.6634316444396973
15-05-1991,2.3125,2.3125,276000,2.40625,2.390625,1.7196297645568848
16-05-1991,2.421875,2.453125,404000,2.46875,2.421875,1.7421091794967651
17-05-1991,2.390625,2.421875,25600,2.421875,2.40625,1.7308685779571533
20-05-1991,2.390625,2.40625,121600,2.4375,2.40625,1.7308685779571533
21-05-1991,2.34375,2.4375,480800,2.4375,2.375,1.7083898782730103
22-05-1991,2.375,2.375,31200,2.390625,2.390625,1.7196297645568848
23-05-1991,2.375,2.40625,240800,2.421875,2.40625,1.7308685779571533
24-05-1991,2.375,2.421875,160800,2.453125,2.390625,1.7196297645568848
28-05-1991,2.375,2.375,60000,2.453125,2.4375,1.7533482313156128
29-05-1991,2.421875,2.4375,334400,2.4375,2.4375,1.7533482313156128
30-05-1991,2.421875,2.4375,521600,2.5,2.5,1.798305630683899
31-05-1991,2.53125,2.53125,1612000,2.625,2.625,1.8882203102111816
03-06-1991,2.609375,2.65625,256000,2.6875,2.625,1.8882203102111816
04-06-1991,2.625,2.65625,1272800,2.671875,2.625,1.8882203102111816
05-06-1991,2.578125,2.625,141600,2.625,2.578125,1.8545024394989014
06-06-1991,2.5625,2.5625,201600,2.609375,2.59375,1.86574125289917
07-06-1991,2.53125,2.59375,473600,2.59375,2.53125,1.8207834959030151
10-06-1991,2.53125,2.546875,168000,2.5625,2.53125,1.8207834959030151
11-06-1991,2.4375,2.53125,155200,2.53125,2.5,1.798305630683899
12-06-1991,2.484375,2.5,51200,2.5,2.5,1.798305630683899
13-06-1991,2.484375,2.5,1600,2.5,2.484375,1.7870664596557617
14-06-1991,2.46875,2.46875,83200,2.46875,2.46875,1.7758266925811768
17-06-1991,2.453125,2.46875,21600,2.46875,2.453125,1.764587640762329
18-06-1991,2.4375,2.46875,341600,2.46875,2.46875,1.7758266925811768
19-06-1991,2.46875,2.46875,170400,2.5,2.5,1.798305630683899
20-06-1991,2.375,2.4375,30400,2.4375,2.375,1.7083898782730103
21-06-1991,2.3125,2.34375,251200,2.375,2.34375,1.685911774635315
24-06-1991,2.3125,2.359375,124800,2.375,2.375,1.7083898782730103
25-06-1991,2.359375,2.375,39200,2.375,2.359375,1.6971498727798462
26-06-1991,2.296875,2.328125,188000,2.359375,2.3125,1.6634316444396973
27-06-1991,2.28125,2.3125,260800,2.34375,2.3125,1.6634316444396973
28-06-1991,2.25,2.3125,418400,2.3125,2.25,1.6184736490249634
01-07-1991,2.203125,2.25,188800,2.25,2.203125,1.5847572088241577
02-07-1991,2.21875,2.21875,127200,2.25,2.234375,1.6072357892990112
03-07-1991,2.203125,2.203125,267200,2.28125,2.25,1.6184736490249634
05-07-1991,2.25,2.25,3200,2.25,2.25,1.6184736490249634
08-07-1991,2.25,2.25,192800,2.296875,2.296875,1.652193546295166
09-07-1991,2.234375,2.28125,359200,2.3125,2.265625,1.6341607570648193
10-07-1991,2.234375,2.25,56000,2.25,2.234375,1.6116209030151367
11-07-1991,2.25,2.25,152800,2.328125,2.3125,1.667971134185791
12-07-1991,2.28125,2.34375,1025600,2.359375,2.296875,1.6567013263702393
15-07-1991,2.328125,2.328125,791200,2.375,2.375,1.7130509614944458
16-07-1991,2.34375,2.359375,1204800,2.421875,2.421875,1.7468620538711548
17-07-1991,2.4375,2.453125,1052000,2.59375,2.59375,1.8708319664001465
18-07-1991,2.625,2.625,304800,2.671875,2.671875,1.9271820783615112
19-07-1991,2.609375,2.671875,73600,2.671875,2.625,1.8933738470077515
22-07-1991,2.5625,2.625,72000,2.625,2.59375,1.8708319664001465
23-07-1991,2.578125,2.609375,124000,2.625,2.578125,1.8595621585845947
24-07-1991,2.578125,2.578125,39200,2.59375,2.578125,1.8595621585845947
25-07-1991,2.5625,2.5625,232800,2.578125,2.5625,1.8482927083969116
26-07-1991,2.5625,2.5625,226400,2.59375,2.59375,1.8708319664001465
29-07-1991,2.59375,2.609375,6400,2.609375,2.609375,1.882103443145752
30-07-1991,2.59375,2.59375,582400,2.65625,2.625,1.8933738470077515
31-07-1991,2.53125,2.5625,698400,2.578125,2.53125,1.8257524967193604
01-08-1991,2.53125,2.53125,248800,2.578125,2.5625,1.8482927083969116
02-08-1991,2.546875,2.546875,71200,2.546875,2.546875,1.8370224237442017
05-08-1991,2.546875,2.5625,96800,2.578125,2.5625,1.8482927083969116
06-08-1991,2.5625,2.5625,457600,2.625,2.59375,1.8708319664001465
07-08-1991,2.59375,2.59375,733600,2.625,2.625,1.8933738470077515
08-08-1991,2.625,2.640625,413600,2.6875,2.640625,1.9046425819396973
09-08-1991,2.625,2.625,111200,2.65625,2.65625,1.9159122705459595
12-08-1991,2.640625,2.6875,223200,2.703125,2.65625,1.9159122705459595
13-08-1991,2.640625,2.640625,118400,2.6875,2.6875,1.9384528398513794
14-08-1991,2.671875,2.671875,372000,2.75,2.75,1.9835326671600342
15-08-1991,2.71875,2.75,369600,2.75,2.75,1.9835326671600342
16-08-1991,2.703125,2.734375,490400,2.734375,2.703125,1.949722170829773
19-08-1991,2.609375,2.671875,91200,2.671875,2.609375,1.882103443145752
20-08-1991,2.609375,2.609375,22400,2.625,2.625,1.8933738470077515
21-08-1991,2.609375,2.625,78400,2.625,2.625,1.8933738470077515
22-08-1991,2.5625,2.640625,292800,2.640625,2.59375,1.8708319664001465
23-08-1991,2.59375,2.59375,1125600,2.75,2.75,1.9835326671600342
26-08-1991,2.734375,2.75,183200,2.78125,2.75,1.9835326671600342
27-08-1991,2.75,2.75,362400,2.84375,2.8125,2.028613805770874
28-08-1991,2.828125,2.84375,203200,2.953125,2.9375,2.118773937225342
29-08-1991,2.921875,2.921875,416800,3.0,2.953125,2.1300437450408936
30-08-1991,2.90625,2.96875,236800,2.96875,2.921875,2.10750412940979
03-09-1991,2.78125,2.890625,230400,2.890625,2.78125,2.0060741901397705
04-09-1991,2.75,2.765625,175200,2.8125,2.765625,1.9948031902313232
05-09-1991,2.796875,2.796875,309600,2.828125,2.8125,2.028613805770874
06-09-1991,2.78125,2.8125,55200,2.828125,2.828125,2.039883852005005
09-09-1991,2.8125,2.8125,8000,2.84375,2.84375,2.0511538982391357
10-09-1991,2.8125,2.828125,452800,2.84375,2.84375,2.0511538982391357
11-09-1991,2.8125,2.828125,145600,2.84375,2.84375,2.0511538982391357
12-09-1991,2.84375,2.859375,48000,2.859375,2.84375,2.0511538982391357
13-09-1991,2.828125,2.875,366400,2.875,2.84375,2.0511538982391357
16-09-1991,2.828125,2.859375,433600,2.859375,2.84375,2.0511538982391357
17-09-1991,2.84375,2.84375,648800,2.890625,2.890625,2.08496356010437
18-09-1991,2.90625,2.90625,136800,2.9375,2.9375,2.118773937225342
19-09-1991,2.921875,2.953125,153600,3.03125,3.03125,2.186394691467285
20-09-1991,3.0,3.078125,312000,3.078125,3.03125,2.186394691467285
23-09-1991,2.96875,3.0625,113600,3.0625,2.96875,2.1413135528564453
24-09-1991,2.875,2.96875,77600,2.96875,2.875,2.0736939907073975
25-09-1991,2.875,2.890625,7200,2.890625,2.875,2.0736939907073975
26-09-1991,2.875,2.90625,296000,2.953125,2.953125,2.1300437450408936
27-09-1991,2.953125,2.96875,70400,3.0,2.96875,2.1413135528564453
30-09-1991,2.953125,2.953125,229600,2.984375,2.984375,2.15258526802063
01-10-1991,2.859375,2.984375,1317600,3.0,2.859375,2.0624239444732666
02-10-1991,2.84375,2.84375,740800,2.9375,2.90625,2.0962350368499756
03-10-1991,2.890625,2.90625,106400,2.90625,2.890625,2.08496356010437
04-10-1991,2.859375,2.875,599200,2.890625,2.890625,2.08496356010437
07-10-1991,2.859375,2.875,973600,2.9375,2.9375,2.118773937225342
08-10-1991,2.90625,2.9375,735200,2.953125,2.9375,2.123293161392212
09-10-1991,2.90625,2.9375,43200,2.9375,2.90625,2.1007046699523926
10-10-1991,2.875,2.90625,144000,2.921875,2.90625,2.1007046699523926
11-10-1991,2.90625,2.921875,23200,2.921875,2.921875,2.111997604370117
14-10-1991,2.9375,2.9375,32000,2.984375,2.96875,2.1458797454833984
15-10-1991,2.984375,2.984375,181600,3.015625,3.015625,2.1797635555267334
16-10-1991,3.0,3.046875,104000,3.078125,3.0,2.168468952178955
17-10-1991,2.984375,3.0,89600,3.03125,3.03125,2.1910560131073
18-10-1991,3.0,3.046875,87200,3.046875,3.0,2.168468952178955
21-10-1991,2.984375,2.984375,3200,2.984375,2.984375,2.1571736335754395
22-10-1991,2.875,2.953125,495200,2.953125,2.875,2.0781147480010986
23-10-1991,2.890625,2.953125,95200,2.953125,2.890625,2.0894088745117188
24-10-1991,2.84375,2.875,35200,2.875,2.84375,2.0555269718170166
25-10-1991,2.75,2.8125,277600,2.8125,2.765625,1.9990562200546265
28-10-1991,2.75,2.75,181600,2.84375,2.84375,2.0555269718170166
29-10-1991,2.75,2.859375,404800,2.859375,2.765625,1.9990562200546265
30-10-1991,2.78125,2.78125,12800,2.796875,2.796875,2.0216445922851562
31-10-1991,2.796875,2.8125,37600,2.84375,2.84375,2.0555269718170166
01-11-1991,2.84375,2.859375,62400,2.9375,2.9375,2.123293161392212
04-11-1991,2.921875,2.921875,624800,3.078125,3.03125,2.1910560131073
05-11-1991,3.046875,3.046875,421600,3.140625,3.109375,2.2475273609161377
06-11-1991,3.03125,3.140625,228000,3.140625,3.03125,2.1910560131073
07-11-1991,3.0,3.046875,206400,3.046875,3.03125,2.1910560131073
08-11-1991,3.015625,3.015625,96800,3.0625,3.0625,2.2136435508728027
11-11-1991,3.03125,3.0625,20000,3.0625,3.03125,2.1910560131073
12-11-1991,3.0,3.0,71200,3.046875,3.03125,2.1910560131073
13-11-1991,3.03125,3.03125,127200,3.140625,3.125,2.2588202953338623
14-11-1991,3.015625,3.125,102400,3.125,3.03125,2.1910560131073
15-11-1991,2.890625,3.015625,141600,3.015625,2.9375,2.123293161392212
18-11-1991,2.875,2.9375,236800,2.9375,2.875,2.0781147480010986
19-11-1991,2.8125,2.890625,143200,2.890625,2.8125,2.0329389572143555
20-11-1991,2.78125,2.796875,144000,2.796875,2.78125,2.010350227355957
21-11-1991,2.78125,2.78125,202400,2.84375,2.796875,2.0216445922851562
22-11-1991,2.75,2.78125,97600,2.78125,2.75,1.987762451171875
25-11-1991,2.75,2.75,16800,2.765625,2.765625,1.9990562200546265
26-11-1991,2.609375,2.75,346400,2.75,2.625,1.897409439086914
27-11-1991,2.625,2.640625,76800,2.65625,2.625,1.897409439086914
29-11-1991,2.640625,2.640625,28800,2.65625,2.65625,1.919998288154602
02-12-1991,2.59375,2.65625,299200,2.671875,2.59375,1.8748207092285156
03-12-1991,2.59375,2.59375,97600,2.65625,2.65625,1.919998288154602
04-12-1991,2.625,2.65625,20800,2.65625,2.625,1.897409439086914
05-12-1991,2.625,2.625,96800,2.6875,2.640625,1.9087035655975342
06-12-1991,2.640625,2.640625,858400,2.65625,2.640625,1.9087035655975342
09-12-1991,2.59375,2.625,57600,2.625,2.59375,1.8748207092285156
10-12-1991,2.484375,2.5625,171200,2.5625,2.5,1.8070567846298218
11-12-1991,2.453125,2.515625,415200,2.5625,2.546875,1.8409391641616821
12-12-1991,2.515625,2.515625,124000,2.53125,2.53125,1.829643726348877
13-12-1991,2.5,2.53125,319200,2.53125,2.5,1.8070567846298218
16-12-1991,2.484375,2.5,372800,2.515625,2.515625,1.818351149559021
17-12-1991,2.515625,2.515625,683200,2.53125,2.53125,1.829643726348877
18-12-1991,2.546875,2.546875,112800,2.578125,2.578125,1.8635270595550537
19-12-1991,2.53125,2.5625,392800,2.5625,2.546875,1.8409391641616821
20-12-1991,2.5,2.53125,164800,2.53125,2.515625,1.818351149559021
23-12-1991,2.421875,2.5,1115200,2.5,2.421875,1.7505851984024048
24-12-1991,2.40625,2.421875,107200,2.515625,2.515625,1.818351149559021
26-12-1991,2.5,2.5,15200,2.515625,2.5,1.8070567846298218
27-12-1991,2.46875,2.5,48000,2.5,2.46875,1.784468412399292
30-12-1991,2.421875,2.46875,920800,2.46875,2.4375,1.7618805170059204
31-12-1991,2.421875,2.4375,116000,2.484375,2.4375,1.7618805170059204
02-01-1992,2.390625,2.421875,732000,2.421875,2.390625,1.7279983758926392
03-01-1992,2.375,2.390625,277600,2.390625,2.375,1.7167035341262817
06-01-1992,2.3125,2.390625,528000,2.390625,2.328125,1.6828210353851318
07-01-1992,2.140625,2.3125,584000,2.3125,2.140625,1.5472928285598755
08-01-1992,2.109375,2.125,692800,2.203125,2.125,1.5359976291656494
09-01-1992,2.109375,2.125,348000,2.171875,2.171875,1.6077102422714233
10-01-1992,2.140625,2.15625,840800,2.234375,2.234375,1.653974175453186
13-01-1992,2.234375,2.234375,456000,2.328125,2.296875,1.7002394199371338
14-01-1992,2.21875,2.296875,281600,2.3125,2.21875,1.6424078941345215
15-01-1992,2.234375,2.234375,377600,2.296875,2.28125,1.6886730194091797
16-01-1992,2.28125,2.28125,80800,2.328125,2.328125,1.7233715057373047
17-01-1992,2.359375,2.359375,47200,2.421875,2.421875,1.7927687168121338
20-01-1992,2.421875,2.421875,91200,2.53125,2.515625,1.8621671199798584
21-01-1992,2.515625,2.53125,578400,2.546875,2.515625,1.8621671199798584
22-01-1992,2.484375,2.515625,300000,2.515625,2.484375,1.8390337228775024
23-01-1992,2.453125,2.46875,313600,2.5,2.453125,1.8159023523330688
24-01-1992,2.3125,2.453125,1104800,2.453125,2.3125,1.7118054628372192
27-01-1992,2.25,2.296875,292800,2.296875,2.265625,1.6771074533462524
28-01-1992,2.1875,2.265625,2736800,2.265625,2.1875,1.6192758083343506
29-01-1992,2.15625,2.203125,463200,2.25,2.203125,1.6308408975601196
30-01-1992,2.140625,2.140625,405600,2.21875,2.1875,1.6192758083343506
31-01-1992,2.1875,2.203125,714400,2.296875,2.25,1.6655402183532715
03-02-1992,2.21875,2.265625,96800,2.265625,2.234375,1.653974175453186
04-02-1992,2.1875,2.21875,355200,2.234375,2.203125,1.6308408975601196
05-02-1992,2.15625,2.203125,604000,2.203125,2.171875,1.6077102422714233
06-02-1992,2.09375,2.1875,492800,2.1875,2.09375,1.5498772859573364
07-02-1992,2.078125,2.078125,704000,2.21875,2.21875,1.6424078941345215
10-02-1992,2.234375,2.234375,782400,2.34375,2.328125,1.7233715057373047
11-02-1992,2.3125,2.328125,241600,2.34375,2.3125,1.7118054628372192
12-02-1992,2.28125,2.3125,446400,2.328125,2.3125,1.7118054628372192
13-02-1992,2.296875,2.3125,161600,2.3125,2.296875,1.7002394199371338
14-02-1992,2.28125,2.296875,190400,2.328125,2.328125,1.7233715057373047
18-02-1992,2.28125,2.3125,504800,2.3125,2.296875,1.7002394199371338
19-02-1992,2.265625,2.28125,20800,2.28125,2.265625,1.6771074533462524
20-02-1992,2.265625,2.265625,260800,2.296875,2.296875,1.7002394199371338
21-02-1992,2.296875,2.296875,311200,2.328125,2.3125,1.7118054628372192
24-02-1992,2.3125,2.328125,249600,2.34375,2.3125,1.7118054628372192
25-02-1992,2.28125,2.3125,144000,2.3125,2.28125,1.6886730194091797
26-02-1992,2.25,2.265625,835200,2.265625,2.265625,1.6771074533462524
27-02-1992,2.25,2.25,67200,2.296875,2.265625,1.6771074533462524
28-02-1992,2.234375,2.234375,321600,2.265625,2.234375,1.653974175453186
02-03-1992,2.25,2.25,588800,2.296875,2.25,1.6655402183532715
03-03-1992,2.25,2.265625,608800,2.28125,2.25,1.6655402183532715
04-03-1992,2.234375,2.234375,488000,2.25,2.25,1.6655402183532715
05-03-1992,2.265625,2.265625,607200,2.28125,2.28125,1.6886730194091797
06-03-1992,2.28125,2.28125,404800,2.296875,2.28125,1.6886730194091797
09-03-1992,2.28125,2.28125,348000,2.328125,2.328125,1.7233715057373047
10-03-1992,2.328125,2.328125,348000,2.40625,2.390625,1.7696360349655151
11-03-1992,2.390625,2.40625,376000,2.40625,2.40625,1.7812039852142334
12-03-1992,2.40625,2.4375,347200,2.4375,2.40625,1.7812039852142334
13-03-1992,2.421875,2.4375,138400,2.46875,2.46875,1.827467679977417
16-03-1992,2.40625,2.5,122400,2.5,2.40625,1.7812039852142334
17-03-1992,2.421875,2.4375,569600,2.4375,2.4375,1.8043361902236938
18-03-1992,2.40625,2.421875,46400,2.421875,2.40625,1.7812039852142334
19-03-1992,2.375,2.4375,394400,2.4375,2.40625,1.7812039852142334
20-03-1992,2.453125,2.46875,232000,2.484375,2.46875,1.827467679977417
23-03-1992,2.5,2.5,545600,2.546875,2.5,1.8506014347076416
24-03-1992,2.5,2.5,618400,2.578125,2.5625,1.8968653678894043
25-03-1992,2.5625,2.578125,116800,2.578125,2.578125,1.908431887626648
26-03-1992,2.609375,2.609375,959200,2.734375,2.6875,1.9893956184387207
27-03-1992,2.609375,2.625,236800,2.65625,2.625,1.9431309700012207
30-03-1992,2.609375,2.625,324800,2.625,2.625,1.9431309700012207
31-03-1992,2.640625,2.640625,307200,2.65625,2.65625,1.966262698173523
01-04-1992,2.609375,2.65625,172800,2.65625,2.609375,1.9315663576126099
02-04-1992,2.578125,2.609375,878400,2.609375,2.59375,1.9199978113174438
03-04-1992,2.546875,2.5625,109600,2.5625,2.5625,1.8968653678894043
06-04-1992,2.578125,2.578125,336000,2.734375,2.734375,2.024094581604004
07-04-1992,2.6875,2.734375,612000,2.734375,2.6875,2.02644944190979
08-04-1992,2.625,2.671875,771200,2.671875,2.625,1.9793232679367065
09-04-1992,2.609375,2.609375,170400,2.75,2.75,2.0785255432128906
10-04-1992,2.734375,2.734375,213600,2.75,2.734375,2.066716432571411
13-04-1992,2.75,2.765625,141600,2.78125,2.765625,2.0903351306915283
14-04-1992,2.78125,2.78125,228000,2.8125,2.8125,2.125765085220337
15-04-1992,2.8125,2.8125,312000,2.828125,2.828125,2.137576103210449
16-04-1992,2.8125,2.8125,39200,2.828125,2.8125,2.125765085220337
20-04-1992,2.8125,2.8125,245600,2.890625,2.890625,2.1848130226135254
21-04-1992,2.875,2.921875,337600,2.921875,2.90625,2.1966235637664795
22-04-1992,2.875,2.890625,8800,2.890625,2.875,2.1730048656463623
23-04-1992,2.84375,2.875,1366400,2.984375,2.875,2.1730048656463623
24-04-1992,3.0,3.03125,687200,3.171875,3.0,2.2674825191497803
27-04-1992,3.03125,3.0625,511200,3.09375,3.046875,2.3029134273529053
28-04-1992,3.015625,3.046875,234400,3.046875,3.03125,2.2911038398742676
29-04-1992,3.03125,3.046875,237600,3.046875,3.03125,2.2911038398742676
30-04-1992,3.03125,3.046875,1008800,3.0625,3.046875,2.3029134273529053
01-05-1992,3.03125,3.03125,146400,3.046875,3.046875,2.3029134273529053
04-05-1992,3.0625,3.0625,251200,3.078125,3.0625,2.314723014831543
05-05-1992,3.046875,3.046875,532000,3.078125,3.078125,2.3265321254730225
06-05-1992,3.015625,3.078125,792800,3.078125,3.015625,2.279292106628418
07-05-1992,2.96875,3.015625,61600,3.015625,2.96875,2.243863821029663
08-05-1992,2.9375,3.0,42400,3.0,2.953125,2.2320525646209717
11-05-1992,2.90625,2.953125,91200,2.953125,2.90625,2.1966235637664795
12-05-1992,2.75,2.921875,1191200,2.921875,2.796875,2.11395525932312
13-05-1992,2.765625,2.796875,261600,2.796875,2.765625,2.0903351306915283
14-05-1992,2.6875,2.765625,1236800,2.84375,2.84375,2.149383783340454
15-05-1992,2.8125,2.828125,509600,2.90625,2.890625,2.1848130226135254
18-05-1992,2.90625,2.90625,431200,3.015625,3.0,2.2674825191497803
19-05-1992,2.953125,3.0,572000,3.046875,3.046875,2.3029134273529053
20-05-1992,3.0625,3.0625,200800,3.09375,3.09375,2.338341236114502
21-05-1992,3.078125,3.078125,946400,3.15625,3.09375,2.338341236114502
22-05-1992,3.078125,3.09375,230400,3.15625,3.140625,2.3737716674804688
26-05-1992,3.125,3.140625,1300800,3.1875,3.1875,2.409201145172119
27-05-1992,3.125,3.203125,1122400,3.25,3.125,2.361962080001831
28-05-1992,3.078125,3.140625,627200,3.140625,3.125,2.361962080001831
29-05-1992,3.078125,3.125,368800,3.125,3.09375,2.338341236114502
01-06-1992,3.078125,3.078125,348800,3.171875,3.171875,2.3973913192749023
02-06-1992,3.125,3.140625,108000,3.15625,3.140625,2.3737716674804688
03-06-1992,3.125,3.15625,1278400,3.1875,3.15625,2.3855810165405273
04-06-1992,3.125,3.125,1169600,3.140625,3.140625,2.3737716674804688
05-06-1992,3.140625,3.15625,816800,3.1875,3.1875,2.409201145172119
08-06-1992,3.21875,3.21875,1822400,3.375,3.3125,2.503678560256958
09-06-1992,3.28125,3.3125,2077600,3.34375,3.3125,2.503678560256958
10-06-1992,3.21875,3.3125,778400,3.3125,3.28125,2.4800596237182617
11-06-1992,3.28125,3.28125,438400,3.40625,3.40625,2.5745372772216797
12-06-1992,3.34375,3.375,2042400,3.375,3.34375,2.5272998809814453
15-06-1992,3.296875,3.328125,2438400,3.328125,3.3125,2.503678560256958
16-06-1992,3.296875,3.328125,660800,3.328125,3.296875,2.491870164871216
17-06-1992,3.21875,3.3125,673600,3.3125,3.234375,2.4446303844451904
18-06-1992,3.21875,3.21875,948800,3.265625,3.234375,2.4446303844451904
19-06-1992,3.234375,3.25,417600,3.265625,3.234375,2.4446303844451904
22-06-1992,3.203125,3.203125,568000,3.21875,3.203125,2.4210102558135986
23-06-1992,3.203125,3.203125,518400,3.21875,3.203125,2.4210102558135986
24-06-1992,3.171875,3.21875,224000,3.21875,3.21875,2.4328203201293945
25-06-1992,3.125,3.21875,307200,3.21875,3.125,2.361962080001831
26-06-1992,3.109375,3.125,629600,3.140625,3.140625,2.3737716674804688
29-06-1992,3.125,3.125,1169600,3.1875,3.171875,2.3973913192749023
30-06-1992,3.15625,3.1875,1156800,3.1875,3.1875,2.409201145172119
01-07-1992,3.203125,3.21875,694400,3.25,3.25,2.4564409255981445
02-07-1992,3.25,3.28125,2007200,3.296875,3.28125,2.4800596237182617
06-07-1992,3.296875,3.3125,771200,3.328125,3.3125,2.503678560256958
07-07-1992,3.3125,3.3125,655200,3.359375,3.328125,2.5154879093170166
08-07-1992,3.3125,3.328125,480800,3.34375,3.328125,2.5154879093170166
09-07-1992,3.328125,3.34375,424000,3.375,3.359375,2.5438852310180664
10-07-1992,3.328125,3.390625,568800,3.390625,3.328125,2.5202219486236572
13-07-1992,3.328125,3.328125,624800,3.359375,3.359375,2.5438852310180664
14-07-1992,3.390625,3.390625,627200,3.625,3.578125,2.7095353603363037
15-07-1992,3.515625,3.59375,465600,3.609375,3.53125,2.674039602279663
16-07-1992,3.390625,3.5,143200,3.5,3.421875,2.5912134647369385
17-07-1992,3.421875,3.4375,45600,3.453125,3.4375,2.60304594039917
20-07-1992,3.390625,3.4375,645600,3.453125,3.390625,2.567549705505371
21-07-1992,3.390625,3.390625,224000,3.421875,3.40625,2.5793826580047607
22-07-1992,3.40625,3.40625,235200,3.484375,3.484375,2.6385419368743896
23-07-1992,3.46875,3.5,112000,3.515625,3.5,2.650374412536621
24-07-1992,3.5,3.5,329600,3.609375,3.609375,2.733198881149292
27-07-1992,3.5625,3.609375,66400,3.609375,3.59375,2.7213661670684814
28-07-1992,3.53125,3.59375,91200,3.59375,3.5625,2.697702169418335
29-07-1992,3.546875,3.5625,84800,3.578125,3.578125,2.7095353603363037
30-07-1992,3.5625,3.5625,565600,3.640625,3.640625,2.756861448287964
31-07-1992,3.625,3.640625,500800,3.65625,3.640625,2.756861448287964
03-08-1992,3.625,3.625,492000,3.703125,3.703125,2.8041906356811523
04-08-1992,3.6875,3.6875,398400,3.71875,3.71875,2.8160221576690674
05-08-1992,3.375,3.59375,268800,3.59375,3.40625,2.5793826580047607
06-08-1992,3.171875,3.25,1166400,3.265625,3.25,2.4610631465911865
07-08-1992,3.25,3.25,996000,3.515625,3.515625,2.6622071266174316
10-08-1992,3.5,3.515625,88000,3.5625,3.546875,2.68587064743042
11-08-1992,3.546875,3.546875,2608000,3.5625,3.546875,2.68587064743042
12-08-1992,3.5625,3.5625,92800,3.59375,3.59375,2.7213661670684814
13-08-1992,3.609375,3.625,684800,3.734375,3.734375,2.8278539180755615
14-08-1992,3.734375,3.78125,1344000,3.84375,3.75,2.8396852016448975
17-08-1992,3.671875,3.71875,1498400,3.71875,3.6875,2.7923593521118164
18-08-1992,3.578125,3.671875,823200,3.6875,3.59375,2.7213661670684814
19-08-1992,3.5,3.5,844800,3.6875,3.5625,2.697702169418335
20-08-1992,3.5625,3.625,7611200,3.640625,3.59375,2.7213661670684814
21-08-1992,3.59375,3.609375,1631200,3.640625,3.59375,2.7213661670684814
24-08-1992,3.578125,3.578125,1412000,3.609375,3.578125,2.7095353603363037
25-08-1992,3.578125,3.578125,1002400,3.71875,3.671875,2.7805261611938477
26-08-1992,3.6875,3.6875,1988000,3.75,3.75,2.8396852016448975
27-08-1992,3.71875,3.734375,872800,3.796875,3.78125,2.863349199295044
28-08-1992,3.8125,3.8125,1732800,3.9375,3.9375,2.981670618057251
31-08-1992,3.84375,3.90625,1392800,3.984375,3.875,2.9343421459198
01-09-1992,3.859375,3.875,740000,3.9375,3.90625,2.9580070972442627
02-09-1992,3.875,3.9375,458400,3.953125,3.890625,2.946176052093506
03-09-1992,3.890625,3.90625,617600,3.921875,3.921875,2.9698386192321777
04-09-1992,3.921875,3.921875,190400,3.96875,3.953125,2.993502616882324
08-09-1992,3.953125,3.953125,1150400,4.09375,4.078125,3.0881593227386475
09-09-1992,4.0625,4.078125,660000,4.09375,4.09375,3.0999903678894043
10-09-1992,4.0625,4.09375,809600,4.109375,4.078125,3.0881593227386475
11-09-1992,4.0625,4.078125,549600,4.109375,4.109375,3.111823081970215
14-09-1992,4.109375,4.140625,684000,4.171875,4.125,3.1236565113067627
15-09-1992,4.109375,4.125,557600,4.140625,4.109375,3.111823081970215
16-09-1992,4.09375,4.109375,723200,4.171875,4.125,3.1236565113067627
17-09-1992,4.125,4.125,565600,4.28125,4.21875,3.1946473121643066
18-09-1992,4.1875,4.1875,668000,4.3125,4.3125,3.2656402587890625
21-09-1992,4.328125,4.328125,808000,4.34375,4.34375,3.28930401802063
22-09-1992,4.296875,4.3125,662400,4.375,4.359375,3.301135301589966
23-09-1992,4.359375,4.375,898400,4.46875,4.375,3.312967538833618
24-09-1992,4.390625,4.390625,1256800,4.484375,4.46875,3.383960247039795
25-09-1992,4.203125,4.421875,1837600,4.4375,4.25,3.2183122634887695
28-09-1992,4.109375,4.25,1749600,4.25,4.125,3.1236565113067627
29-09-1992,4.171875,4.203125,276800,4.234375,4.234375,3.2064809799194336
30-09-1992,4.15625,4.21875,330400,4.234375,4.15625,3.1473193168640137
01-10-1992,4.03125,4.140625,378400,4.140625,4.03125,3.052661657333374
02-10-1992,4.015625,4.046875,772800,4.078125,4.046875,3.0644965171813965
05-10-1992,3.953125,4.046875,312000,4.046875,3.96875,3.005335569381714
06-10-1992,3.90625,3.96875,885600,3.96875,3.9375,2.981670618057251
07-10-1992,3.953125,3.953125,649600,4.015625,3.984375,3.017167568206787
08-10-1992,3.96875,3.96875,266400,4.0625,4.0,3.0337588787078857
09-10-1992,3.90625,3.96875,112000,4.03125,3.9375,2.986356019973755
12-10-1992,3.9375,3.9375,351200,3.953125,3.953125,2.9982056617736816
13-10-1992,3.890625,3.9375,412000,3.953125,3.9375,2.986356019973755
14-10-1992,3.921875,3.9375,341600,3.953125,3.9375,2.986356019973755
15-10-1992,3.90625,3.9375,205600,3.9375,3.90625,2.9626550674438477
16-10-1992,3.921875,3.921875,1151200,4.078125,4.0625,3.08115816116333
19-10-1992,4.0625,4.0625,756000,4.3125,4.28125,3.247067928314209
20-10-1992,4.203125,4.265625,209600,4.265625,4.21875,3.1996662616729736
21-10-1992,4.140625,4.203125,104800,4.203125,4.15625,3.15226411819458
22-10-1992,3.953125,4.140625,365600,4.140625,3.953125,2.9982056617736816
23-10-1992,3.9375,3.96875,101600,3.96875,3.953125,2.9982056617736816
26-10-1992,3.953125,3.953125,396800,4.015625,4.0,3.0337588787078857
27-10-1992,3.8125,3.984375,318400,3.984375,3.859375,2.9271023273468018
28-10-1992,3.71875,3.859375,920800,3.859375,3.828125,2.903400182723999
29-10-1992,3.828125,3.828125,348000,3.90625,3.84375,2.915252208709717
30-10-1992,3.8125,3.875,143200,3.875,3.8125,2.8915505409240723
02-11-1992,3.828125,3.828125,156800,3.875,3.875,2.938952684402466
03-11-1992,3.75,3.875,296800,3.875,3.75,2.844149351119995
04-11-1992,3.65625,3.765625,464000,3.78125,3.65625,2.773043394088745
05-11-1992,3.46875,3.625,1245600,3.625,3.484375,2.6426870822906494
06-11-1992,3.53125,3.53125,1823200,3.671875,3.65625,2.773043394088745
09-11-1992,3.5,3.625,1322400,3.65625,3.546875,2.690089702606201
10-11-1992,3.5625,3.5625,1669600,3.625,3.625,2.749342441558838
11-11-1992,3.5625,3.625,551200,3.625,3.5625,2.7019407749176025
12-11-1992,3.5625,3.625,1320800,3.640625,3.578125,2.7137911319732666
13-11-1992,3.59375,3.609375,324000,3.640625,3.625,2.749342441558838
16-11-1992,3.609375,3.609375,257600,3.65625,3.65625,2.773043394088745
17-11-1992,3.625,3.625,304000,3.640625,3.625,2.749342441558838
18-11-1992,3.625,3.625,693600,3.640625,3.640625,2.7611942291259766
19-11-1992,3.46875,3.609375,821600,3.640625,3.5,2.6545376777648926
20-11-1992,3.53125,3.53125,536800,3.59375,3.59375,2.7256410121917725
23-11-1992,3.5625,3.5625,660000,3.671875,3.625,2.749342441558838
24-11-1992,3.578125,3.609375,503200,3.609375,3.59375,2.7256410121917725
25-11-1992,3.578125,3.578125,96000,3.609375,3.59375,2.7256410121917725
27-11-1992,3.578125,3.59375,230400,3.625,3.625,2.749342441558838
30-11-1992,3.53125,3.625,539200,3.625,3.546875,2.690089702606201
01-12-1992,3.53125,3.546875,1116800,3.546875,3.53125,2.6782386302948
02-12-1992,3.53125,3.53125,721600,3.578125,3.578125,2.7137911319732666
03-12-1992,3.421875,3.5625,1191200,3.5625,3.4375,2.607135534286499
04-12-1992,3.421875,3.4375,1249600,3.5,3.5,2.6545376777648926
07-12-1992,3.484375,3.484375,167200,3.546875,3.5,2.6545376777648926
08-12-1992,3.453125,3.5,580000,3.515625,3.484375,2.6426870822906494
09-12-1992,3.484375,3.5,374400,3.546875,3.53125,2.6782386302948
10-12-1992,3.484375,3.546875,1601600,3.609375,3.609375,2.7374913692474365
11-12-1992,3.65625,3.65625,151200,3.703125,3.671875,2.7848942279815674
14-12-1992,3.609375,3.671875,920000,3.671875,3.65625,2.773043394088745
15-12-1992,3.609375,3.640625,406400,3.640625,3.625,2.749342441558838
16-12-1992,3.59375,3.609375,402400,3.625,3.59375,2.7256410121917725
17-12-1992,3.5625,3.609375,52800,3.609375,3.5625,2.7019407749176025
18-12-1992,3.578125,3.59375,295200,3.59375,3.59375,2.7256410121917725
21-12-1992,3.546875,3.578125,488000,3.578125,3.546875,2.690089702606201
22-12-1992,3.53125,3.5625,960800,3.5625,3.546875,2.690089702606201
23-12-1992,3.515625,3.546875,1008000,3.546875,3.515625,2.6663894653320312
24-12-1992,3.53125,3.546875,655200,3.59375,3.59375,2.7256410121917725
28-12-1992,3.53125,3.578125,97600,3.578125,3.546875,2.690089702606201
29-12-1992,3.53125,3.546875,596000,3.59375,3.5625,2.7019407749176025
30-12-1992,3.546875,3.578125,639200,3.578125,3.546875,2.690089702606201
31-12-1992,3.5625,3.5625,376000,3.6875,3.671875,2.7848942279815674
04-01-1993,3.609375,3.6875,597600,3.71875,3.609375,2.7374913692474365
05-01-1993,3.578125,3.609375,715200,3.6875,3.6875,2.7967450618743896
06-01-1993,3.59375,3.6875,928800,3.6875,3.609375,2.7374913692474365
07-01-1993,3.5625,3.609375,333600,3.609375,3.578125,2.7137911319732666
08-01-1993,3.46875,3.578125,1617600,3.578125,3.46875,2.6308372020721436
11-01-1993,3.375,3.484375,410400,3.484375,3.390625,2.5771570205688477
12-01-1993,3.359375,3.390625,269600,3.40625,3.40625,2.5890326499938965
13-01-1993,3.359375,3.40625,826400,3.484375,3.46875,2.63653826713562
14-01-1993,3.34375,3.4375,619200,3.453125,3.34375,2.5415263175964355
15-01-1993,3.359375,3.375,1232800,3.421875,3.390625,2.5771570205688477
18-01-1993,3.359375,3.390625,460000,3.390625,3.375,2.565279006958008
19-01-1993,3.359375,3.359375,1157600,3.484375,3.453125,2.6246609687805176
20-01-1993,3.4375,3.453125,132800,3.484375,3.46875,2.63653826713562
21-01-1993,3.4375,3.4375,272800,3.5,3.5,2.660289764404297
22-01-1993,3.5,3.515625,540800,3.59375,3.59375,2.7315473556518555
25-01-1993,3.578125,3.578125,969600,3.703125,3.6875,2.8028042316436768
26-01-1993,3.78125,3.8125,1224000,3.875,3.78125,2.874063014984131
27-01-1993,3.703125,3.734375,636000,3.765625,3.75,2.850311279296875
28-01-1993,3.75,3.765625,773600,3.90625,3.90625,2.9690732955932617
29-01-1993,3.890625,3.90625,492800,4.0,3.96875,3.0165796279907227
01-02-1993,4.0,4.0,1876800,4.078125,4.0625,3.0878350734710693
02-02-1993,4.046875,4.046875,1044000,4.09375,4.09375,3.1115899085998535
03-02-1993,4.09375,4.09375,1448000,4.359375,4.296875,3.2659807205200195
04-02-1993,4.328125,4.328125,1330400,4.4375,4.4375,3.3728671073913574
05-02-1993,4.4375,4.4375,1606400,4.515625,4.5,3.420372724533081
08-02-1993,4.46875,4.5,1975200,4.5,4.5,3.420372724533081
09-02-1993,4.40625,4.5,756000,4.5,4.421875,3.360991954803467
10-02-1993,4.359375,4.421875,800000,4.453125,4.375,3.325362205505371
11-02-1993,4.359375,4.359375,971200,4.5,4.484375,3.408496618270874
12-02-1993,4.46875,4.484375,932000,4.484375,4.484375,3.408496618270874
16-02-1993,4.34375,4.46875,292800,4.46875,4.34375,3.3016107082366943
17-02-1993,4.34375,4.359375,632800,4.40625,4.390625,3.3372390270233154
18-02-1993,4.421875,4.421875,604800,4.484375,4.4375,3.3728671073913574
19-02-1993,4.421875,4.4375,3408800,4.515625,4.5,3.420372724533081
22-02-1993,4.5,4.5,1140000,4.609375,4.5625,3.467878580093384
23-02-1993,4.5,4.59375,664000,4.59375,4.546875,3.456003189086914
24-02-1993,4.46875,4.515625,499200,4.515625,4.484375,3.408496618270874
25-02-1993,4.359375,4.484375,259200,4.484375,4.359375,3.313485860824585
26-02-1993,4.359375,4.390625,128000,4.421875,4.40625,3.349113702774048
01-03-1993,4.421875,4.4375,1396000,4.53125,4.4375,3.3728671073913574
02-03-1993,4.4375,4.46875,332800,4.484375,4.453125,3.3847451210021973
03-03-1993,4.46875,4.46875,4088800,4.84375,4.78125,3.6341450214385986
04-03-1993,4.640625,4.75,913600,4.78125,4.734375,3.598517417907715
05-03-1993,4.6875,4.71875,335200,4.734375,4.6875,3.562887668609619
08-03-1993,4.703125,4.703125,472000,4.796875,4.78125,3.6341450214385986
09-03-1993,4.75,4.796875,324000,4.796875,4.78125,3.6341450214385986
10-03-1993,4.734375,4.78125,199200,4.8125,4.8125,3.657900094985962
11-03-1993,4.796875,4.8125,213600,4.921875,4.890625,3.7172794342041016
12-03-1993,4.796875,4.921875,702400,4.921875,4.84375,3.6816513538360596
15-03-1993,4.84375,4.84375,209600,4.875,4.875,3.7054028511047363
16-03-1993,4.84375,4.859375,316800,4.875,4.859375,3.693528175354004
17-03-1993,4.859375,4.875,136800,4.984375,4.984375,3.7885396480560303
18-03-1993,4.921875,4.96875,444000,5.0,5.0,3.8004157543182373
19-03-1993,4.96875,4.984375,300800,5.0,4.96875,3.7766616344451904
22-03-1993,4.96875,4.984375,640800,5.0,4.984375,3.7885396480560303
23-03-1993,4.96875,5.015625,100800,5.015625,4.96875,3.7766616344451904
24-03-1993,4.96875,4.96875,574400,5.078125,4.96875,3.7766616344451904
25-03-1993,4.84375,4.90625,1020000,4.921875,4.84375,3.6816513538360596
26-03-1993,4.8125,4.84375,753600,4.921875,4.90625,3.7291574478149414
29-03-1993,4.921875,4.921875,589600,4.984375,4.984375,3.7885396480560303
30-03-1993,5.0,5.0,663200,5.03125,5.03125,3.8241662979125977
31-03-1993,4.96875,5.03125,558400,5.03125,5.015625,3.8122897148132324
01-04-1993,4.984375,5.03125,537600,5.03125,5.0,3.8004157543182373
02-04-1993,4.859375,4.953125,240800,4.953125,4.890625,3.7172794342041016
05-04-1993,4.875,4.90625,292800,4.90625,4.90625,3.7291574478149414
06-04-1993,4.875,4.90625,604800,4.90625,4.875,3.7054028511047363
07-04-1993,4.8125,4.84375,860000,4.875,4.875,3.7054028511047363
08-04-1993,4.859375,4.859375,24000,4.875,4.875,3.7111124992370605
12-04-1993,4.859375,4.859375,325600,4.96875,4.96875,3.7824816703796387
13-04-1993,4.84375,4.96875,1076800,5.03125,4.875,3.7111124992370605
14-04-1993,4.84375,4.890625,447200,4.890625,4.84375,3.6873245239257812
15-04-1993,4.8125,4.875,231200,4.921875,4.8125,3.66353702545166
16-04-1993,4.796875,4.828125,356800,4.84375,4.84375,3.6873245239257812
19-04-1993,4.828125,4.828125,173600,4.890625,4.875,3.7111124992370605
20-04-1993,4.90625,4.90625,1133600,5.0625,4.984375,3.7943763732910156
21-04-1993,4.875,5.015625,185600,5.015625,4.875,3.7111124992370605
22-04-1993,4.671875,4.84375,335200,4.84375,4.671875,3.5564844608306885
23-04-1993,4.46875,4.671875,786400,4.671875,4.5,3.4256434440612793
26-04-1993,4.515625,4.53125,367200,4.640625,4.625,3.5208005905151367
27-04-1993,4.625,4.65625,108000,4.65625,4.640625,3.532696008682251
28-04-1993,4.625,4.625,189600,4.640625,4.640625,3.532696008682251
29-04-1993,4.625,4.65625,383200,4.75,4.75,3.6159565448760986
30-04-1993,4.75,4.75,779200,4.96875,4.921875,3.7467973232269287
03-05-1993,4.953125,4.953125,249600,4.984375,4.953125,3.770587682723999
04-05-1993,4.90625,4.921875,1332800,4.953125,4.921875,3.7467973232269287
05-05-1993,4.921875,4.921875,65600,4.9375,4.921875,3.7467973232269287
06-05-1993,4.921875,4.921875,664800,5.0,4.9375,3.7586913108825684
07-05-1993,4.90625,4.921875,186400,4.96875,4.921875,3.7467973232269287
10-05-1993,4.8125,4.9375,828000,4.9375,4.8125,3.66353702545166
11-05-1993,4.78125,4.78125,1120800,4.953125,4.9375,3.7586913108825684
12-05-1993,4.90625,4.9375,852000,4.984375,4.953125,3.770587682723999
13-05-1993,4.90625,4.90625,702400,5.09375,5.0625,3.853848457336426
14-05-1993,5.0625,5.0625,931200,5.265625,5.171875,3.9371109008789062
17-05-1993,5.15625,5.171875,390400,5.203125,5.203125,3.9609010219573975
18-05-1993,5.203125,5.203125,340800,5.328125,5.296875,4.032267093658447
19-05-1993,5.1875,5.3125,412800,5.3125,5.234375,3.9846906661987305
20-05-1993,5.21875,5.21875,216000,5.25,5.234375,3.9846906661987305
21-05-1993,5.203125,5.234375,400000,5.234375,5.21875,3.9727942943573
24-05-1993,5.21875,5.25,496000,5.25,5.234375,3.9846906661987305
25-05-1993,5.171875,5.1875,400800,5.25,5.1875,3.949004888534546
26-05-1993,5.15625,5.1875,188000,5.203125,5.203125,3.9609010219573975
27-05-1993,5.203125,5.203125,511200,5.3125,5.3125,4.044162750244141
28-05-1993,5.28125,5.296875,473600,5.3125,5.3125,4.044162750244141
01-06-1993,5.328125,5.34375,619200,5.4375,5.40625,4.115530490875244
02-06-1993,5.40625,5.40625,522400,5.625,5.5625,4.234475612640381
03-06-1993,5.484375,5.5625,403200,5.5625,5.515625,4.198790073394775
04-06-1993,5.484375,5.5,889600,5.515625,5.5,4.186896800994873
07-06-1993,5.484375,5.5,482400,5.515625,5.5,4.186896800994873
08-06-1993,5.421875,5.484375,277600,5.484375,5.4375,4.139318943023682
09-06-1993,5.40625,5.40625,262400,5.5,5.5,4.186896800994873
10-06-1993,5.4375,5.484375,779200,5.484375,5.4375,4.139318943023682
11-06-1993,5.234375,5.40625,606400,5.40625,5.234375,3.9846906661987305
14-06-1993,5.125,5.21875,763200,5.21875,5.125,3.901426076889038
15-06-1993,5.125,5.125,288800,5.15625,5.125,3.901426076889038
16-06-1993,5.140625,5.140625,219200,5.203125,5.203125,3.9609010219573975
17-06-1993,5.21875,5.21875,193600,5.328125,5.25,3.996586322784424
18-06-1993,5.265625,5.28125,224800,5.296875,5.265625,4.008477210998535
21-06-1993,5.28125,5.28125,292800,5.359375,5.34375,4.06795072555542
22-06-1993,5.265625,5.34375,1112000,5.34375,5.265625,4.008477210998535
23-06-1993,5.265625,5.265625,2466400,5.296875,5.296875,4.032267093658447
24-06-1993,5.0625,5.296875,637600,5.296875,5.125,3.901426076889038
25-06-1993,5.109375,5.125,36000,5.125,5.125,3.901426076889038
28-06-1993,5.125,5.125,204800,5.140625,5.140625,3.913320541381836
29-06-1993,4.984375,5.109375,648000,5.125,5.046875,3.8419549465179443
30-06-1993,5.03125,5.0625,552000,5.09375,5.09375,3.8776376247406006
01-07-1993,5.015625,5.078125,376800,5.078125,5.046875,3.8419549465179443
02-07-1993,5.015625,5.0625,100000,5.0625,5.046875,3.8419549465179443
06-07-1993,5.0,5.046875,437600,5.09375,5.0,3.806269884109497
07-07-1993,4.96875,4.96875,1369600,5.078125,5.078125,3.8657448291778564
08-07-1993,5.078125,5.078125,955200,5.1875,5.1875,3.949004888534546
09-07-1993,5.171875,5.171875,1352000,5.25,5.25,4.002371788024902
12-07-1993,5.28125,5.28125,900000,5.34375,5.3125,4.050020694732666
13-07-1993,5.28125,5.3125,100000,5.3125,5.28125,4.026194095611572
14-07-1993,5.28125,5.28125,538400,5.3125,5.28125,4.026194095611572
15-07-1993,5.21875,5.3125,338400,5.3125,5.25,4.002371788024902
16-07-1993,5.234375,5.25,147200,5.265625,5.25,4.002371788024902
19-07-1993,5.25,5.296875,417600,5.296875,5.28125,4.026194095611572
20-07-1993,5.25,5.25,713600,5.3125,5.3125,4.050020694732666
21-07-1993,5.3125,5.3125,395200,5.34375,5.3125,4.050020694732666
22-07-1993,5.28125,5.3125,314400,5.3125,5.296875,4.038106918334961
23-07-1993,5.25,5.296875,341600,5.3125,5.3125,4.050020694732666
26-07-1993,5.296875,5.34375,196000,5.34375,5.296875,4.038106918334961
27-07-1993,5.21875,5.265625,191200,5.28125,5.25,4.002371788024902
28-07-1993,5.234375,5.25,356800,5.296875,5.265625,4.014281749725342
29-07-1993,5.25,5.265625,98400,5.3125,5.296875,4.038106918334961
30-07-1993,5.3125,5.3125,57600,5.328125,5.328125,4.061929225921631
02-08-1993,5.3125,5.328125,1029600,5.46875,5.46875,4.169133186340332
03-08-1993,5.484375,5.484375,356000,5.578125,5.5625,4.240608215332031
04-08-1993,5.546875,5.546875,400000,5.65625,5.625,4.288252830505371
05-08-1993,5.609375,5.609375,56000,5.640625,5.625,4.288252830505371
06-08-1993,5.578125,5.625,348800,5.625,5.59375,4.264432430267334
09-08-1993,5.609375,5.609375,344800,5.6875,5.6875,4.335902214050293
10-08-1993,5.6875,5.6875,632800,5.75,5.75,4.383547782897949
11-08-1993,5.78125,5.78125,784800,6.0,6.0,4.574137210845947
12-08-1993,5.984375,6.0,1103200,6.21875,6.015625,4.586050987243652
13-08-1993,5.9375,6.03125,226400,6.03125,5.9375,4.526490688323975
16-08-1993,5.9375,5.9375,448000,5.984375,5.984375,4.562227249145508
17-08-1993,6.0625,6.0625,640000,6.25,6.25,4.76472806930542
18-08-1993,6.234375,6.234375,805600,6.484375,6.421875,4.895754814147949
19-08-1993,6.3125,6.4375,424000,6.46875,6.3125,4.812373638153076
20-08-1993,6.3125,6.3125,914400,6.453125,6.453125,4.919579982757568
23-08-1993,6.453125,6.46875,964800,6.703125,6.703125,5.110169887542725
24-08-1993,6.53125,6.703125,704000,6.703125,6.5625,5.002962112426758
25-08-1993,6.4375,6.5625,753600,6.578125,6.453125,4.919579982757568
26-08-1993,6.25,6.453125,817600,6.453125,6.296875,4.800460338592529
27-08-1993,6.03125,6.28125,627200,6.28125,6.125,4.669432640075684
30-08-1993,6.109375,6.125,529600,6.25,6.21875,4.740902900695801
31-08-1993,6.171875,6.234375,888000,6.328125,6.28125,4.788552284240723
01-09-1993,6.28125,6.28125,388800,6.390625,6.375,4.860020160675049
02-09-1993,6.28125,6.375,286400,6.375,6.28125,4.788552284240723
03-09-1993,6.28125,6.28125,135200,6.328125,6.296875,4.800460338592529
07-09-1993,6.125,6.296875,236800,6.328125,6.125,4.669432640075684
08-09-1993,5.953125,6.125,388800,6.125,5.953125,4.538403034210205
09-09-1993,5.921875,5.953125,533600,5.984375,5.96875,4.5503129959106445
10-09-1993,5.953125,5.96875,121600,5.984375,5.984375,4.562227249145508
13-09-1993,5.921875,5.984375,472800,6.03125,5.921875,4.514577865600586
14-09-1993,5.90625,5.953125,633600,5.96875,5.9375,4.526490688323975
15-09-1993,5.921875,5.9375,994400,6.046875,6.0,4.574137210845947
16-09-1993,6.0,6.0,152800,6.03125,6.0,4.574137210845947
17-09-1993,5.890625,5.96875,127200,5.96875,5.9375,4.526490688323975
20-09-1993,5.9375,5.9375,248000,5.96875,5.96875,4.5503129959106445
21-09-1993,5.96875,5.96875,218400,6.03125,6.015625,4.586050987243652
22-09-1993,5.96875,6.0,99200,6.03125,5.96875,4.5503129959106445
23-09-1993,5.953125,5.984375,232800,5.984375,5.984375,4.562227249145508
24-09-1993,5.953125,5.96875,357600,6.0,5.96875,4.5503129959106445
27-09-1993,5.953125,5.953125,441600,6.0,5.984375,4.562227249145508
28-09-1993,5.921875,5.984375,326400,5.984375,5.9375,4.526490688323975
29-09-1993,5.9375,5.9375,1200800,6.453125,6.453125,4.919579982757568
30-09-1993,6.453125,6.453125,755200,6.625,6.625,5.0506134033203125
01-10-1993,6.59375,6.59375,599200,6.71875,6.71875,5.122080326080322
04-10-1993,6.640625,6.71875,248000,6.75,6.640625,5.062520980834961
05-10-1993,6.578125,6.65625,122400,6.65625,6.578125,5.0148725509643555
06-10-1993,6.5,6.578125,114400,6.578125,6.53125,4.9791388511657715
07-10-1993,6.4375,6.5,224000,6.5,6.484375,4.943404197692871
08-10-1993,6.40625,6.484375,245600,6.484375,6.421875,4.901423454284668
11-10-1993,6.25,6.421875,288000,6.421875,6.25,4.7702460289001465
12-10-1993,6.125,6.25,272800,6.25,6.125,4.674839496612549
13-10-1993,5.96875,6.078125,826400,6.109375,5.984375,4.567508697509766
14-10-1993,6.0,6.09375,388000,6.125,6.03125,4.603285312652588
15-10-1993,5.828125,6.0,707200,6.0,5.875,4.4840264320373535
18-10-1993,5.71875,5.875,719200,5.875,5.75,4.388623237609863
19-10-1993,5.484375,5.75,1467200,5.875,5.828125,4.448254108428955
20-10-1993,5.3125,5.796875,1626400,5.796875,5.3125,4.054710865020752
21-10-1993,5.4375,5.4375,3216000,5.6875,5.5,4.197813987731934
22-10-1993,5.375,5.5,928800,5.5,5.375,4.102406978607178
25-10-1993,5.28125,5.375,901600,5.421875,5.28125,4.030857086181641
26-10-1993,5.0,5.28125,1536800,5.3125,5.03125,3.840043067932129
27-10-1993,5.0625,5.0625,1416000,5.1875,5.1875,3.9593029022216797
28-10-1993,5.1875,5.1875,1215200,5.453125,5.453125,4.162038326263428
29-10-1993,5.328125,5.421875,412800,5.46875,5.34375,4.078559875488281
01-11-1993,5.34375,5.359375,379200,5.484375,5.453125,4.162038326263428
02-11-1993,5.453125,5.453125,553600,5.578125,5.5625,4.245518207550049
03-11-1993,5.578125,5.609375,540800,5.671875,5.625,4.293219089508057
04-11-1993,5.625,5.65625,345600,5.734375,5.625,4.293219089508057
05-11-1993,5.53125,5.625,112800,5.625,5.5625,4.245518207550049
08-11-1993,5.46875,5.5625,207200,5.5625,5.46875,4.173961639404297
09-11-1993,5.1875,5.46875,542400,5.46875,5.21875,3.98315167427063
10-11-1993,5.21875,5.25,191200,5.28125,5.265625,4.018931865692139
11-11-1993,5.203125,5.28125,564800,5.40625,5.21875,3.98315167427063
12-11-1993,5.0625,5.203125,1202400,5.203125,5.203125,3.9712278842926025
15-11-1993,5.140625,5.203125,675200,5.234375,5.140625,3.9235262870788574
16-11-1993,4.875,4.96875,827200,4.984375,4.9375,3.7684926986694336
17-11-1993,4.9375,5.0,1617600,5.203125,5.203125,3.9712278842926025
18-11-1993,5.15625,5.203125,463200,5.359375,5.296875,4.042782306671143
19-11-1993,5.21875,5.25,85600,5.265625,5.265625,4.018931865692139
22-11-1993,5.078125,5.25,173600,5.25,5.078125,3.875821113586426
23-11-1993,5.078125,5.109375,697600,5.21875,5.09375,3.8877501487731934
24-11-1993,5.109375,5.109375,556800,5.15625,5.15625,3.9354519844055176
26-11-1993,5.03125,5.125,94400,5.125,5.03125,3.840043067932129
29-11-1993,4.828125,4.96875,1270400,4.96875,4.828125,3.685012102127075
30-11-1993,4.78125,4.84375,457600,4.859375,4.828125,3.685012102127075
01-12-1993,4.828125,4.859375,316000,4.921875,4.859375,3.7088630199432373
02-12-1993,4.84375,4.84375,429600,4.90625,4.859375,3.7088630199432373
03-12-1993,4.875,4.875,142400,4.90625,4.875,3.72078800201416
06-12-1993,4.84375,4.875,308800,4.90625,4.890625,3.732714891433716
07-12-1993,4.859375,4.875,528800,4.953125,4.90625,3.744642496109009
08-12-1993,4.84375,4.890625,89600,4.890625,4.859375,3.7088630199432373
09-12-1993,4.71875,4.859375,69600,4.859375,4.78125,3.649235248565674
10-12-1993,4.796875,4.796875,271200,4.84375,4.828125,3.685012102127075
13-12-1993,4.71875,4.859375,102400,4.859375,4.765625,3.6373097896575928
14-12-1993,4.734375,4.796875,620800,4.8125,4.8125,3.6730873584747314
15-12-1993,4.71875,4.765625,128000,4.765625,4.734375,3.6134610176086426
16-12-1993,4.75,4.75,565600,4.84375,4.78125,3.649235248565674
17-12-1993,4.734375,4.796875,200800,4.8125,4.75,3.625384569168091
20-12-1993,4.40625,4.71875,927200,4.71875,4.515625,3.446500539779663
21-12-1993,4.265625,4.546875,880000,4.546875,4.4375,3.386873960494995
22-12-1993,4.40625,4.453125,676000,4.75,4.734375,3.6134610176086426
23-12-1993,4.703125,4.703125,176000,4.796875,4.75,3.625384569168091
27-12-1993,4.6875,4.6875,1060000,4.890625,4.859375,3.7088630199432373
28-12-1993,4.8125,4.890625,629600,4.921875,4.8125,3.6730873584747314
29-12-1993,4.828125,4.828125,648000,4.890625,4.859375,3.7088630199432373
30-12-1993,4.828125,4.84375,270400,4.859375,4.859375,3.7088630199432373
31-12-1993,4.828125,4.859375,112800,4.875,4.875,3.72078800201416
03-01-1994,4.828125,4.875,332000,4.875,4.875,3.72078800201416
04-01-1994,4.84375,4.84375,202400,4.890625,4.890625,3.732714891433716
05-01-1994,4.96875,4.96875,800000,5.25,5.203125,3.9712278842926025
06-01-1994,5.234375,5.234375,999200,5.484375,5.453125,4.162038326263428
07-01-1994,5.40625,5.46875,704800,5.46875,5.4375,4.150112152099609
10-01-1994,5.421875,5.421875,573600,5.640625,5.640625,4.311089992523193
11-01-1994,5.453125,5.59375,1028800,5.59375,5.5,4.203611850738525
12-01-1994,5.390625,5.5,296000,5.53125,5.40625,4.131959915161133
13-01-1994,5.3125,5.40625,10779200,5.421875,5.3125,4.060310363769531
14-01-1994,5.15625,5.28125,1295200,5.328125,5.15625,3.9408867359161377
17-01-1994,5.21875,5.25,1098400,5.3125,5.296875,4.048364162445068
18-01-1994,5.3125,5.3125,851200,5.4375,5.4375,4.155844211578369
19-01-1994,5.46875,5.46875,1249600,5.609375,5.515625,4.215555191040039
20-01-1994,5.359375,5.515625,487200,5.5625,5.359375,4.09613561630249
21-01-1994,5.34375,5.390625,354400,5.421875,5.375,4.108076095581055
24-01-1994,5.3125,5.390625,408800,5.40625,5.3125,4.060310363769531
25-01-1994,5.296875,5.3125,284000,5.328125,5.3125,4.060310363769531
26-01-1994,5.265625,5.3125,873600,5.40625,5.375,4.108076095581055
27-01-1994,5.375,5.375,1322400,5.5625,5.546875,4.239439487457275
28-01-1994,5.484375,5.5,303200,5.515625,5.5,4.203611850738525
31-01-1994,5.515625,5.53125,787200,5.671875,5.515625,4.215555191040039
01-02-1994,5.546875,5.546875,700800,5.625,5.609375,4.287205696105957
02-02-1994,5.578125,5.578125,999200,5.9375,5.765625,4.406628131866455
03-02-1994,5.734375,5.8125,155200,5.8125,5.75,4.394686698913574
04-02-1994,5.703125,5.78125,1171200,5.828125,5.71875,4.3708038330078125
07-02-1994,5.609375,5.671875,363200,5.671875,5.625,4.299149513244629
08-02-1994,5.59375,5.625,355200,5.75,5.734375,4.382741928100586
09-02-1994,5.59375,5.734375,272800,5.734375,5.65625,4.323033332824707
10-02-1994,5.5,5.65625,944800,5.65625,5.5,4.203611850738525
11-02-1994,5.5,5.53125,212800,5.71875,5.6875,4.346919536590576
14-02-1994,5.40625,5.6875,335200,5.6875,5.5,4.203611850738525
15-02-1994,5.46875,5.46875,137600,5.53125,5.5,4.203611850738525
16-02-1994,5.375,5.46875,541600,5.484375,5.375,4.108076095581055
17-02-1994,5.34375,5.390625,538400,5.46875,5.34375,4.08419132232666
18-02-1994,5.328125,5.375,437600,5.390625,5.34375,4.08419132232666
22-02-1994,5.359375,5.375,83200,5.40625,5.375,4.108076095581055
23-02-1994,5.34375,5.34375,152000,5.4375,5.421875,4.143901348114014
24-02-1994,5.375,5.421875,108800,5.4375,5.4375,4.155844211578369
25-02-1994,5.46875,5.5,848800,5.5625,5.46875,4.179726600646973
28-02-1994,5.375,5.46875,57600,5.46875,5.375,4.108076095581055
01-03-1994,5.34375,5.40625,180000,5.40625,5.375,4.108076095581055
02-03-1994,5.28125,5.34375,310400,5.34375,5.3125,4.060310363769531
03-03-1994,5.296875,5.328125,92800,5.34375,5.3125,4.060310363769531
04-03-1994,5.296875,5.296875,196800,5.40625,5.390625,4.120017051696777
07-03-1994,5.34375,5.40625,268800,5.40625,5.34375,4.08419132232666
08-03-1994,5.234375,5.3125,516800,5.328125,5.234375,4.000598430633545
09-03-1994,4.96875,5.203125,609600,5.203125,5.03125,3.845349073410034
10-03-1994,4.921875,5.015625,894400,5.046875,4.9375,3.7736990451812744
11-03-1994,4.921875,4.953125,410400,5.03125,5.015625,3.833406448364258
14-03-1994,5.015625,5.015625,308800,5.1875,5.171875,3.952828884124756
15-03-1994,5.21875,5.21875,446400,5.328125,5.28125,4.036422252655029
16-03-1994,5.25,5.265625,458400,5.296875,5.28125,4.036422252655029
17-03-1994,5.265625,5.265625,423200,5.515625,5.484375,4.191669940948486
18-03-1994,5.5,5.53125,879200,5.6875,5.6875,4.346919536590576
21-03-1994,5.671875,5.71875,813600,5.734375,5.71875,4.3708038330078125
22-03-1994,5.6875,5.6875,1078400,5.8125,5.796875,4.4305100440979
23-03-1994,5.625,5.6875,722400,5.6875,5.671875,4.334974765777588
24-03-1994,5.5625,5.59375,674400,5.65625,5.625,4.299149513244629
25-03-1994,5.609375,5.609375,510400,5.671875,5.625,4.299149513244629
28-03-1994,5.4375,5.609375,1590400,5.609375,5.4375,4.155844211578369
29-03-1994,5.25,5.421875,617600,5.421875,5.25,4.012539863586426
30-03-1994,5.109375,5.234375,567200,5.328125,5.3125,4.060310363769531
31-03-1994,5.265625,5.3125,148800,5.34375,5.34375,4.08419132232666
04-04-1994,5.25,5.3125,445600,5.3125,5.265625,4.024480819702148
05-04-1994,5.234375,5.28125,940000,5.328125,5.25,4.012539863586426
06-04-1994,5.21875,5.3125,240000,5.375,5.375,4.108076095581055
07-04-1994,5.34375,5.375,574400,5.4375,5.34375,4.08419132232666
08-04-1994,5.3125,5.328125,169600,5.34375,5.34375,4.08419132232666
11-04-1994,5.265625,5.3125,698400,5.3125,5.296875,4.054056644439697
12-04-1994,5.3125,5.3125,1101600,5.40625,5.375,4.113847732543945
13-04-1994,5.359375,5.375,604000,5.4375,5.4375,4.161685943603516
14-04-1994,5.359375,5.390625,1280800,5.53125,5.53125,4.233438014984131
15-04-1994,5.46875,5.53125,826400,5.875,5.875,4.4965314865112305
18-04-1994,5.6875,5.8125,1331200,5.8125,5.796875,4.436739444732666
19-04-1994,5.734375,5.78125,704000,5.8125,5.734375,4.388904094696045
20-04-1994,5.703125,5.71875,727200,5.71875,5.71875,4.376943111419678
21-04-1994,5.703125,5.703125,480000,5.765625,5.75,4.4008636474609375
22-04-1994,5.71875,5.734375,332000,5.796875,5.765625,4.412820816040039
25-04-1994,5.734375,5.765625,498400,5.9375,5.9375,4.544369220733643
26-04-1994,5.9375,5.9375,1096000,5.96875,5.96875,4.568290710449219
28-04-1994,5.9375,5.953125,856800,6.015625,5.953125,4.556327819824219
29-04-1994,5.890625,5.9375,535200,5.9375,5.9375,4.544369220733643
02-05-1994,5.890625,5.90625,652000,5.953125,5.953125,4.556327819824219
03-05-1994,5.859375,5.9375,560800,5.9375,5.875,4.4965314865112305
04-05-1994,5.875,5.875,358400,5.9375,5.9375,4.544369220733643
05-05-1994,5.921875,5.96875,66400,5.96875,5.921875,4.532410621643066
06-05-1994,5.921875,5.921875,343200,6.125,6.09375,4.66395902633667
09-05-1994,6.03125,6.109375,453600,6.109375,6.078125,4.651998996734619
10-05-1994,6.09375,6.140625,632800,6.140625,6.09375,4.66395902633667
11-05-1994,6.03125,6.09375,187200,6.109375,6.03125,4.616123199462891
12-05-1994,6.03125,6.046875,806400,6.15625,6.140625,4.699835300445557
13-05-1994,6.109375,6.109375,257600,6.125,6.125,4.687874794006348
16-05-1994,6.109375,6.140625,293600,6.140625,6.109375,4.67591667175293
17-05-1994,5.890625,6.09375,1044000,6.09375,5.953125,4.556327819824219
18-05-1994,5.90625,5.96875,1417600,5.984375,5.96875,4.568290710449219
19-05-1994,5.890625,5.984375,205600,5.984375,5.890625,4.508491516113281
20-05-1994,5.8125,5.90625,309600,5.90625,5.828125,4.460657119750977
23-05-1994,5.765625,5.796875,208800,5.8125,5.765625,4.412820816040039
24-05-1994,5.703125,5.75,287200,5.75,5.703125,4.364985942840576
25-05-1994,5.65625,5.71875,179200,5.71875,5.65625,4.329110145568848
26-05-1994,5.515625,5.59375,840800,5.625,5.546875,4.245398044586182
27-05-1994,5.53125,5.5625,70400,5.59375,5.578125,4.269312858581543
31-05-1994,5.5,5.546875,752800,5.578125,5.5,4.209519386291504
01-06-1994,5.5,5.5,480800,5.546875,5.515625,4.221482753753662
02-06-1994,5.46875,5.5,600000,5.53125,5.46875,4.185603618621826
03-06-1994,5.34375,5.453125,136800,5.453125,5.421875,4.149727821350098
06-06-1994,5.453125,5.5,132800,5.5,5.46875,4.185603618621826
07-06-1994,5.46875,5.46875,863200,5.578125,5.5625,4.257358074188232
08-06-1994,5.4375,5.5625,276800,5.5625,5.46875,4.185603618621826
09-06-1994,5.375,5.4375,304800,5.4375,5.375,4.113847732543945
10-06-1994,5.375,5.375,165600,5.578125,5.578125,4.269312858581543
13-06-1994,5.578125,5.578125,736800,5.703125,5.6875,4.353027820587158
14-06-1994,5.703125,5.703125,476000,5.75,5.75,4.4008636474609375
15-06-1994,5.71875,5.75,292000,5.78125,5.734375,4.388904094696045
16-06-1994,5.71875,5.71875,132000,5.78125,5.78125,4.424779891967773
17-06-1994,5.75,5.75,384000,5.90625,5.90625,4.520450115203857
20-06-1994,5.75,5.9375,174800,5.9375,5.84375,4.472616672515869
21-06-1994,5.78125,5.78125,166400,5.90625,5.90625,4.520450115203857
22-06-1994,5.875,5.96875,52800,5.96875,5.90625,4.520450115203857
23-06-1994,5.75,5.96875,197200,5.96875,5.75,4.4008636474609375
24-06-1994,5.59375,5.75,143200,5.75,5.71875,4.376943111419678
27-06-1994,5.625,5.6875,136800,5.75,5.71875,4.376943111419678
28-06-1994,5.59375,5.65625,190800,5.71875,5.71875,4.376943111419678
29-06-1994,5.65625,5.71875,94800,5.75,5.75,4.4008636474609375
30-06-1994,5.59375,5.6875,440400,5.75,5.75,4.4008636474609375
01-07-1994,5.625,5.75,150400,5.75,5.65625,4.329110145568848
05-07-1994,5.5,5.6875,72400,5.6875,5.5,4.209519386291504
06-07-1994,5.46875,5.5,182800,5.6875,5.6875,4.353027820587158
07-07-1994,5.59375,5.71875,36000,5.71875,5.59375,4.281275272369385
08-07-1994,5.5,5.5625,24000,5.59375,5.5,4.209519386291504
11-07-1994,5.5,5.53125,51600,5.5625,5.5625,4.263167858123779
12-07-1994,5.5,5.5625,98800,5.59375,5.5625,4.263167858123779
13-07-1994,5.40625,5.59375,277200,5.65625,5.5,4.215266227722168
14-07-1994,5.4375,5.53125,72800,5.53125,5.4375,4.167367458343506
15-07-1994,5.34375,5.40625,68800,5.40625,5.375,4.119465351104736
18-07-1994,5.3125,5.4375,261600,5.46875,5.46875,4.1913161277771
19-07-1994,5.375,5.4375,143200,5.4375,5.375,4.119465351104736
20-07-1994,5.3125,5.40625,31600,5.40625,5.3125,4.071568489074707
21-07-1994,5.1875,5.1875,230800,5.34375,5.34375,4.095515727996826
22-07-1994,5.1875,5.3125,37600,5.3125,5.21875,3.9997148513793945
25-07-1994,5.03125,5.25,187200,5.25,5.03125,3.856013774871826
26-07-1994,4.9375,5.0625,230000,5.0625,4.96875,3.8081130981445312
27-07-1994,4.90625,5.0,551200,5.03125,4.9375,3.784162998199463
28-07-1994,4.9375,4.9375,342800,5.0,5.0,3.8320634365081787
29-07-1994,4.96875,5.0,209600,5.0,4.96875,3.8081130981445312
01-08-1994,4.9375,4.9375,620000,5.0,5.0,3.8320634365081787
02-08-1994,4.9375,4.96875,216400,5.0,5.0,3.8320634365081787
03-08-1994,4.90625,4.96875,430800,5.03125,5.0,3.8320634365081787
04-08-1994,4.9375,4.96875,156400,5.0625,5.0,3.8320634365081787
05-08-1994,4.78125,4.96875,233200,5.0,4.78125,3.6644070148468018
08-08-1994,4.8125,4.84375,731600,4.90625,4.84375,3.7123119831085205
09-08-1994,4.78125,4.8125,1479200,5.0,5.0,3.8320634365081787
10-08-1994,5.03125,5.0625,600000,5.125,5.0625,3.8799633979797363
11-08-1994,4.96875,5.03125,326800,5.09375,4.96875,3.8081130981445312
12-08-1994,4.9375,4.96875,558400,5.03125,5.0,3.8320634365081787
15-08-1994,4.96875,5.0,71600,5.0625,4.96875,3.8081130981445312
16-08-1994,4.9375,5.0,300800,5.0,4.9375,3.784162998199463
17-08-1994,4.90625,4.9375,148800,5.0,4.96875,3.8081130981445312
18-08-1994,4.90625,4.96875,228400,4.96875,4.9375,3.784162998199463
19-08-1994,4.90625,4.9375,330400,4.953125,4.90625,3.7602124214172363
22-08-1994,4.8125,4.9375,137200,4.9375,4.8125,3.688361883163452
23-08-1994,4.78125,4.875,459200,4.90625,4.84375,3.7123119831085205
24-08-1994,4.875,4.875,956000,5.03125,4.9375,3.784162998199463
25-08-1994,4.75,4.96875,773200,4.96875,4.78125,3.6644070148468018
26-08-1994,4.65625,4.8125,1071600,4.875,4.8125,3.688361883163452
29-08-1994,4.625,4.875,1677600,4.875,4.71875,3.616509437561035
30-08-1994,4.6875,4.71875,976800,4.8125,4.8125,3.688361883163452
31-08-1994,4.75,4.8125,1103600,4.90625,4.8125,3.688361883163452
01-09-1994,4.78125,4.78125,967600,4.875,4.84375,3.7123119831085205
02-09-1994,4.84375,4.90625,250400,4.9375,4.9375,3.784162998199463
06-09-1994,4.875,4.90625,397200,5.03125,5.03125,3.856013774871826
07-09-1994,5.0625,5.0625,1347600,5.25,5.1875,3.975766897201538
08-09-1994,5.125,5.125,1925200,5.4375,5.4375,4.167367458343506
09-09-1994,5.125,5.375,1384800,5.375,5.125,3.927863597869873
12-09-1994,5.125,5.1875,572800,5.21875,5.125,3.927863597869873
13-09-1994,5.125,5.15625,136400,5.1875,5.15625,3.9518160820007324
14-09-1994,5.125,5.125,378800,5.25,5.25,4.023664951324463
15-09-1994,5.21875,5.25,1040800,5.3125,5.25,4.023664951324463
16-09-1994,5.25,5.28125,429600,5.375,5.375,4.119465351104736
19-09-1994,5.25,5.375,374400,5.375,5.25,4.023664951324463
20-09-1994,5.0,5.1875,248400,5.1875,5.125,3.927863597869873
21-09-1994,4.9375,5.125,303200,5.125,5.0,3.8320634365081787
22-09-1994,5.0,5.0625,68000,5.0625,5.0,3.8320634365081787
23-09-1994,5.0625,5.0625,456000,5.21875,5.1875,3.975766897201538
26-09-1994,5.15625,5.15625,168800,5.25,5.25,4.023664951324463
27-09-1994,5.15625,5.21875,271200,5.21875,5.1875,3.975766897201538
28-09-1994,5.15625,5.1875,45600,5.21875,5.15625,3.9518160820007324
29-09-1994,5.125,5.1875,135200,5.1875,5.15625,3.9518160820007324
30-09-1994,5.0625,5.1875,63600,5.1875,5.09375,3.903914213180542
03-10-1994,5.0625,5.09375,100000,5.125,5.0625,3.8799633979797363
04-10-1994,4.96875,5.09375,256800,5.09375,4.96875,3.8081130981445312
05-10-1994,4.96875,4.96875,100400,5.03125,5.03125,3.856013774871826
06-10-1994,5.03125,5.0625,187200,5.125,5.0625,3.8799633979797363
07-10-1994,5.09375,5.09375,220000,5.3125,5.28125,4.053621292114258
10-10-1994,5.28125,5.28125,344000,5.375,5.3125,4.077609539031982
11-10-1994,5.3125,5.3125,328800,5.375,5.3125,4.077609539031982
12-10-1994,5.15625,5.25,155600,5.25,5.15625,3.957679271697998
13-10-1994,5.1875,5.21875,285600,5.28125,5.25,4.029634952545166
14-10-1994,5.1875,5.25,151200,5.25,5.25,4.029634952545166
17-10-1994,5.25,5.3125,88000,5.3125,5.25,4.029634952545166
18-10-1994,5.25,5.25,153200,5.375,5.375,4.125577449798584
19-10-1994,5.34375,5.34375,236000,5.4375,5.34375,4.10159158706665
20-10-1994,5.21875,5.3125,174000,5.34375,5.25,4.029634952545166
21-10-1994,5.1875,5.1875,66800,5.25,5.21875,4.005648612976074
24-10-1994,5.1875,5.25,72800,5.34375,5.3125,4.077609539031982
25-10-1994,5.1875,5.3125,243200,5.34375,5.25,4.029634952545166
26-10-1994,5.21875,5.25,512800,5.40625,5.40625,4.149562835693359
27-10-1994,5.375,5.375,1548800,5.625,5.53125,4.245509147644043
28-10-1994,5.46875,5.5,638000,5.6875,5.65625,4.341452598571777
31-10-1994,5.5,5.625,102000,5.625,5.53125,4.245509147644043
01-11-1994,5.46875,5.53125,71200,5.5625,5.5625,4.269493103027344
02-11-1994,5.4375,5.53125,349600,5.53125,5.46875,4.197535037994385
03-11-1994,5.46875,5.5,54000,5.5625,5.53125,4.245509147644043
04-11-1994,5.46875,5.46875,237600,5.53125,5.46875,4.197535037994385
07-11-1994,5.4375,5.5,145600,5.5,5.4375,4.173550605773926
08-11-1994,5.375,5.40625,126800,5.4375,5.40625,4.149562835693359
09-11-1994,5.4375,5.4375,328400,5.46875,5.4375,4.173550605773926
10-11-1994,5.4375,5.4375,60800,5.46875,5.4375,4.173550605773926
11-11-1994,5.34375,5.4375,80800,5.46875,5.34375,4.10159158706665
14-11-1994,5.21875,5.3125,125600,5.3125,5.25,4.029634952545166
15-11-1994,5.21875,5.25,166400,5.28125,5.28125,4.053621292114258
16-11-1994,5.15625,5.21875,154800,5.25,5.15625,3.957679271697998
17-11-1994,4.90625,5.09375,990400,5.09375,4.96875,3.81376314163208
18-11-1994,4.625,4.90625,1564800,4.90625,4.78125,3.6698436737060547
21-11-1994,4.71875,4.8125,789600,4.84375,4.75,3.645862102508545
22-11-1994,4.625,4.6875,559600,4.71875,4.6875,3.5978894233703613
23-11-1994,4.5,4.71875,952400,4.71875,4.59375,3.525930404663086
25-11-1994,4.53125,4.5625,45600,4.59375,4.53125,3.477959156036377
28-11-1994,4.46875,4.59375,1295600,4.59375,4.53125,3.477959156036377
29-11-1994,4.46875,4.53125,1277200,4.625,4.59375,3.525930404663086
30-11-1994,4.53125,4.625,410400,4.625,4.53125,3.477959156036377
01-12-1994,4.5,4.53125,507600,4.65625,4.625,3.5499160289764404
02-12-1994,4.625,4.625,588000,4.6875,4.625,3.5499160289764404
05-12-1994,4.375,4.59375,1013600,4.65625,4.375,3.35802960395813
06-12-1994,4.375,4.375,664400,4.4375,4.375,3.35802960395813
07-12-1994,4.34375,4.375,218400,4.5625,4.5625,3.501945734024048
08-12-1994,4.53125,4.53125,552800,4.8125,4.6875,3.5978894233703613
09-12-1994,4.5625,4.625,588400,4.625,4.59375,3.525930404663086
12-12-1994,4.625,4.625,519200,4.6875,4.65625,3.573901414871216
13-12-1994,4.65625,4.65625,408000,4.78125,4.75,3.645862102508545
14-12-1994,4.78125,4.78125,529200,4.96875,4.9375,3.7897775173187256
15-12-1994,4.8125,4.96875,116000,4.96875,4.84375,3.717819929122925
16-12-1994,4.8125,4.84375,312800,4.875,4.84375,3.717819929122925
19-12-1994,4.75,4.84375,426800,4.84375,4.8125,3.6938343048095703
20-12-1994,4.625,4.75,305200,4.8125,4.65625,3.573901414871216
21-12-1994,4.59375,4.6875,634400,4.6875,4.625,3.5499160289764404
22-12-1994,4.53125,4.65625,284000,4.65625,4.53125,3.477959156036377
23-12-1994,4.53125,4.5625,29600,4.59375,4.5625,3.501945734024048
27-12-1994,4.4375,4.59375,209600,4.59375,4.5,3.453972816467285
28-12-1994,4.5,4.5,228800,4.59375,4.59375,3.525930404663086
29-12-1994,4.65625,4.65625,221200,4.8125,4.71875,3.621875286102295
30-12-1994,4.6875,4.71875,150400,4.78125,4.6875,3.5978894233703613
03-01-1995,4.65625,4.75,129600,4.78125,4.75,3.645862102508545
04-01-1995,4.6875,4.75,68400,4.8125,4.71875,3.621875286102295
05-01-1995,4.59375,4.65625,260000,4.6875,4.65625,3.573901414871216
06-01-1995,4.5,4.6875,404800,4.6875,4.5625,3.501945734024048
09-01-1995,4.46875,4.53125,613600,4.5625,4.46875,3.435636043548584
10-01-1995,4.3125,4.4375,289600,4.4375,4.3125,3.315507650375366
11-01-1995,4.3125,4.3125,124800,4.40625,4.40625,3.387585163116455
12-01-1995,4.3125,4.375,374400,4.4375,4.3125,3.315507650375366
13-01-1995,4.28125,4.3125,66800,4.40625,4.375,3.363558530807495
16-01-1995,4.28125,4.3125,480800,4.328125,4.3125,3.315507650375366
17-01-1995,4.3125,4.3125,437600,4.4375,4.40625,3.387585163116455
18-01-1995,4.40625,4.40625,606000,4.59375,4.5625,3.5077121257781982
19-01-1995,4.5,4.5625,248000,4.5625,4.5,3.459660768508911
20-01-1995,4.5,4.53125,76400,4.53125,4.53125,3.4836840629577637
23-01-1995,4.375,4.46875,128800,4.5,4.375,3.363558530807495
24-01-1995,4.375,4.375,345600,4.5625,4.53125,3.4836840629577637
25-01-1995,4.46875,4.53125,129600,4.53125,4.5,3.459660768508911
26-01-1995,4.5,4.5,145200,4.625,4.625,3.555762529373169
27-01-1995,4.5,4.5625,512000,4.59375,4.53125,3.4836840629577637
30-01-1995,4.4375,4.53125,193200,4.53125,4.46875,3.435636043548584
31-01-1995,4.4375,4.4375,186400,4.53125,4.4375,3.4116086959838867
01-02-1995,4.4375,4.4375,46000,4.5,4.46875,3.435636043548584
02-02-1995,4.4375,4.46875,41600,4.5,4.46875,3.435636043548584
03-02-1995,4.4375,4.5,243600,4.53125,4.5,3.459660768508911
06-02-1995,4.5625,4.625,651200,4.8125,4.75,3.6518633365631104
07-02-1995,4.6875,4.8125,437200,4.8125,4.6875,3.6038119792938232
08-02-1995,4.71875,4.71875,549600,4.8125,4.75,3.6518633365631104
09-02-1995,4.6875,4.78125,278800,4.78125,4.6875,3.6038119792938232
10-02-1995,4.6875,4.71875,243600,4.78125,4.78125,3.6758902072906494
13-02-1995,4.8125,4.8125,264800,4.90625,4.84375,3.7239413261413574
14-02-1995,4.75,4.84375,137600,4.84375,4.84375,3.7239413261413574
15-02-1995,4.8125,4.84375,277200,4.96875,4.9375,3.796015739440918
16-02-1995,4.9375,4.9375,477600,5.03125,5.0,3.8440675735473633
17-02-1995,5.0,5.0,261200,5.125,5.125,3.9401705265045166
21-02-1995,5.09375,5.125,92400,5.125,5.125,3.9401705265045166
22-02-1995,5.0625,5.09375,214400,5.125,5.09375,3.9161438941955566
23-02-1995,5.0625,5.125,348800,5.15625,5.15625,3.9641964435577393
24-02-1995,5.09375,5.15625,281200,5.15625,5.125,3.9401705265045166
27-02-1995,5.09375,5.125,381600,5.15625,5.15625,3.9641964435577393
28-02-1995,5.15625,5.1875,322400,5.21875,5.21875,4.012242794036865
01-03-1995,5.15625,5.1875,70800,5.1875,5.15625,3.9641964435577393
02-03-1995,5.15625,5.15625,218800,5.25,5.25,4.036270618438721
03-03-1995,5.21875,5.25,259600,5.28125,5.25,4.036270618438721
06-03-1995,5.15625,5.25,236400,5.25,5.21875,4.012242794036865
07-03-1995,5.125,5.25,405200,5.25,5.125,3.9401705265045166
08-03-1995,5.125,5.15625,442800,5.28125,5.21875,4.012242794036865
09-03-1995,5.1875,5.25,179600,5.28125,5.28125,4.060294151306152
10-03-1995,5.15625,5.25,170400,5.25,5.15625,3.9641964435577393
13-03-1995,5.15625,5.1875,100800,5.21875,5.1875,3.988220691680908
14-03-1995,5.1875,5.1875,101600,5.25,5.25,4.036270618438721
15-03-1995,5.25,5.25,317200,5.34375,5.3125,4.084321975708008
16-03-1995,5.28125,5.28125,635600,5.5,5.4375,4.180422782897949
17-03-1995,5.3125,5.40625,492800,5.5,5.4375,4.180422782897949
20-03-1995,5.28125,5.40625,426800,5.5,5.34375,4.108349323272705
21-03-1995,5.25,5.3125,159600,5.3125,5.25,4.036270618438721
22-03-1995,5.28125,5.3125,349200,5.375,5.3125,4.084321975708008
23-03-1995,5.3125,5.34375,279600,5.4375,5.40625,4.15639591217041
24-03-1995,5.28125,5.40625,696000,5.40625,5.3125,4.084321975708008
27-03-1995,5.3125,5.34375,314400,5.5,5.5,4.2284722328186035
28-03-1995,5.5,5.5,268800,5.5625,5.5625,4.276523590087891
29-03-1995,5.5625,5.5625,458000,5.6875,5.625,4.324576377868652
30-03-1995,5.65625,5.65625,414400,5.875,5.875,4.516778469085693
31-03-1995,5.90625,5.90625,1336800,6.21875,6.15625,4.73300838470459
03-04-1995,5.96875,6.15625,1253600,6.15625,5.96875,4.588855743408203
04-04-1995,5.84375,5.96875,666000,5.96875,5.875,4.516778469085693
05-04-1995,5.84375,5.875,1044800,5.96875,5.90625,4.5408034324646
06-04-1995,5.71875,5.875,704000,5.875,5.71875,4.396651268005371
07-04-1995,5.625,5.6875,227600,5.75,5.625,4.330255508422852
10-04-1995,5.59375,5.59375,525600,5.75,5.75,4.450219631195068
11-04-1995,5.6875,5.78125,668400,5.78125,5.75,4.450219631195068
12-04-1995,5.71875,5.75,110400,5.78125,5.78125,4.474403381347656
13-04-1995,5.75,5.8125,191600,5.875,5.75,4.450219631195068
17-04-1995,5.75,5.78125,133200,5.8125,5.75,4.450219631195068
18-04-1995,5.5625,5.75,805200,5.75,5.5625,4.3051018714904785
19-04-1995,5.53125,5.59375,182400,5.625,5.625,4.35347318649292
20-04-1995,5.625,5.625,356000,5.78125,5.78125,4.474403381347656
21-04-1995,5.8125,5.8125,1894000,6.1875,6.09375,4.716263771057129
24-04-1995,5.9375,6.125,940800,6.1875,5.9375,4.595334053039551
25-04-1995,5.84375,5.875,103200,5.90625,5.84375,4.522775173187256
26-04-1995,5.71875,5.875,144000,5.875,5.78125,4.474403381347656
27-04-1995,5.65625,5.78125,390800,5.78125,5.65625,4.377659320831299
28-04-1995,5.6875,5.71875,266400,5.71875,5.71875,4.426032543182373
01-05-1995,5.71875,5.75,529200,5.78125,5.75,4.450219631195068
02-05-1995,5.6875,5.75,406400,5.75,5.75,4.450219631195068
03-05-1995,5.75,5.75,199600,5.8125,5.75,4.450219631195068
04-05-1995,5.6875,5.75,215200,5.75,5.71875,4.426032543182373
05-05-1995,5.65625,5.6875,289200,5.75,5.65625,4.377659320831299
08-05-1995,5.625,5.65625,224000,5.6875,5.65625,4.377659320831299
09-05-1995,5.625,5.65625,509200,5.8125,5.8125,4.498589038848877
10-05-1995,5.78125,5.78125,706400,5.9375,5.9375,4.595334053039551
11-05-1995,5.78125,5.90625,222000,5.90625,5.8125,4.498589038848877
12-05-1995,5.75,5.8125,38800,5.8125,5.78125,4.474403381347656
15-05-1995,5.78125,5.8125,279600,5.875,5.875,4.54695987701416
16-05-1995,5.84375,5.90625,43200,5.9375,5.84375,4.522775173187256
17-05-1995,5.78125,5.84375,295600,5.84375,5.8125,4.498589038848877
18-05-1995,5.65625,5.8125,107600,5.8125,5.71875,4.426032543182373
19-05-1995,5.71875,5.71875,130800,5.75,5.75,4.450219631195068
22-05-1995,5.6875,5.75,64000,5.75,5.6875,4.4018449783325195
23-05-1995,5.71875,5.71875,340800,5.90625,5.875,4.54695987701416
24-05-1995,5.84375,5.875,449200,6.09375,6.09375,4.716263771057129
25-05-1995,6.0,6.03125,798400,6.125,6.0625,4.692078590393066
26-05-1995,5.9375,6.0625,177600,6.0625,5.96875,4.619516372680664
30-05-1995,5.9375,5.9375,303600,6.03125,6.03125,4.667891025543213
31-05-1995,6.0,6.0625,254800,6.0625,6.0625,4.692078590393066
01-06-1995,6.03125,6.0625,26000,6.09375,6.03125,4.667891025543213
02-06-1995,5.9375,6.0625,201600,6.09375,5.96875,4.619516372680664
05-06-1995,5.96875,6.0,137600,6.0,6.0,4.643705368041992
06-06-1995,5.875,6.0,53200,6.0,5.90625,4.571146488189697
07-06-1995,5.8125,5.9375,307600,5.9375,5.8125,4.498589038848877
08-06-1995,5.75,5.8125,242000,5.8125,5.78125,4.474403381347656
09-06-1995,5.75,5.78125,652000,5.8125,5.78125,4.474403381347656
12-06-1995,5.71875,5.78125,188000,5.78125,5.75,4.450219631195068
13-06-1995,5.6875,5.6875,119200,5.71875,5.71875,4.426032543182373
14-06-1995,5.71875,5.78125,300400,5.78125,5.78125,4.474403381347656
15-06-1995,5.71875,5.75,186800,5.8125,5.8125,4.498589038848877
16-06-1995,5.6875,5.8125,190000,5.8125,5.6875,4.4018449783325195
19-06-1995,5.59375,5.65625,399600,5.71875,5.6875,4.4018449783325195
20-06-1995,5.34375,5.71875,788000,5.71875,5.34375,4.135800838470459
21-06-1995,5.1875,5.34375,494400,5.34375,5.21875,4.039054870605469
22-06-1995,5.0625,5.21875,762800,5.21875,5.15625,3.99068284034729
23-06-1995,5.1875,5.1875,2558400,5.34375,5.3125,4.111613750457764
26-06-1995,5.25,5.28125,352400,5.375,5.34375,4.135800838470459
27-06-1995,5.3125,5.3125,496800,5.4375,5.40625,4.184170722961426
28-06-1995,5.21875,5.375,1011200,5.375,5.25,4.063241004943848
29-06-1995,5.1875,5.25,250400,5.25,5.1875,4.014871120452881
30-06-1995,5.21875,5.21875,653600,5.4375,5.4375,4.208357810974121
03-07-1995,5.34375,5.40625,317600,5.46875,5.46875,4.232543468475342
05-07-1995,5.28125,5.4375,124000,5.4375,5.28125,4.08742618560791
06-07-1995,5.21875,5.25,680800,5.28125,5.25,4.063241004943848
07-07-1995,5.21875,5.25,272400,5.25,5.25,4.086594581604004
10-07-1995,5.125,5.28125,638400,5.3125,5.125,3.9892945289611816
11-07-1995,5.0,5.125,582000,5.28125,5.15625,4.013617038726807
12-07-1995,5.1875,5.1875,335600,5.28125,5.25,4.092545032501221
13-07-1995,5.21875,5.375,817600,5.4375,5.21875,4.068184852600098
14-07-1995,5.15625,5.25,286000,5.28125,5.1875,4.043824672698975
17-07-1995,5.15625,5.1875,460400,5.25,5.21875,4.068184852600098
18-07-1995,5.21875,5.21875,77600,5.28125,5.28125,4.116906642913818
19-07-1995,5.1875,5.25,132000,5.28125,5.25,4.092545032501221
20-07-1995,5.25,5.25,379200,5.375,5.28125,4.116906642913818
21-07-1995,5.21875,5.28125,248000,5.375,5.34375,4.165627956390381
24-07-1995,5.3125,5.3125,176400,5.40625,5.375,4.189988136291504
25-07-1995,5.40625,5.40625,344000,5.46875,5.4375,4.238708972930908
26-07-1995,5.34375,5.40625,244000,5.40625,5.34375,4.165627956390381
27-07-1995,5.21875,5.28125,758000,5.375,5.28125,4.116906642913818
28-07-1995,5.25,5.3125,111600,5.375,5.375,4.189988136291504
31-07-1995,5.34375,5.34375,217200,5.4375,5.40625,4.214347839355469
01-08-1995,5.1875,5.375,532800,5.375,5.21875,4.068184852600098
02-08-1995,5.1875,5.21875,302000,5.25,5.21875,4.068184852600098
03-08-1995,5.125,5.1875,552400,5.34375,5.34375,4.165627956390381
04-08-1995,5.28125,5.34375,558800,5.34375,5.34375,4.165627956390381
07-08-1995,5.34375,5.375,101600,5.40625,5.375,4.189988136291504
08-08-1995,5.34375,5.40625,305200,5.4375,5.34375,4.165627956390381
09-08-1995,5.3125,5.40625,703200,5.40625,5.3125,4.141267776489258
10-08-1995,5.1875,5.3125,166000,5.34375,5.1875,4.043824672698975
11-08-1995,5.15625,5.15625,349600,5.3125,5.3125,4.141267776489258
14-08-1995,5.25,5.34375,134400,5.34375,5.25,4.092545032501221
15-08-1995,5.25,5.3125,108800,5.34375,5.25,4.092545032501221
16-08-1995,5.125,5.21875,242000,5.21875,5.21875,4.068184852600098
17-08-1995,5.1875,5.1875,371600,5.3125,5.28125,4.116906642913818
18-08-1995,5.28125,5.28125,542400,5.5,5.40625,4.214347839355469
21-08-1995,5.40625,5.46875,575600,5.5,5.40625,4.214347839355469
22-08-1995,5.4375,5.4375,362400,5.53125,5.53125,4.311791896820068
23-08-1995,5.5625,5.5625,317600,5.71875,5.625,4.3848700523376465
24-08-1995,5.46875,5.59375,2007200,5.625,5.5,4.287426948547363
25-08-1995,5.5,5.5,160000,5.53125,5.5,4.287426948547363
28-08-1995,5.46875,5.5,280000,5.5625,5.53125,4.311791896820068
29-08-1995,5.5,5.53125,56400,5.5625,5.53125,4.311791896820068
30-08-1995,5.625,5.625,290400,5.65625,5.65625,4.409231185913086
31-08-1995,5.6875,5.6875,116800,5.84375,5.8125,4.531033992767334
01-09-1995,5.84375,5.84375,431200,5.96875,5.96875,4.652835369110107
05-09-1995,5.90625,5.96875,545200,6.03125,6.03125,4.7015557289123535
06-09-1995,5.90625,5.96875,415600,6.0,6.0,4.677196979522705
07-09-1995,5.78125,6.0,284000,6.03125,6.03125,4.7015557289123535
08-09-1995,5.9375,6.03125,248000,6.09375,5.9375,4.628475189208984
11-09-1995,5.9375,5.96875,230800,6.03125,6.03125,4.7015557289123535
12-09-1995,5.90625,6.0,312400,6.15625,6.15625,4.798998832702637
13-09-1995,6.03125,6.125,547600,6.125,6.0625,4.725915908813477
14-09-1995,5.9375,6.03125,348000,6.09375,6.09375,4.750277519226074
15-09-1995,6.0625,6.0625,221200,6.1875,6.1875,4.823357582092285
18-09-1995,6.125,6.15625,490000,6.34375,6.21875,4.847718238830566
19-09-1995,6.0,6.15625,504800,6.1875,6.15625,4.798998832702637
20-09-1995,6.0,6.125,284800,6.125,6.0,4.677196979522705
21-09-1995,5.9375,6.0625,451200,6.0625,6.03125,4.7015557289123535
22-09-1995,5.78125,6.03125,143600,6.03125,5.875,4.579753875732422
25-09-1995,5.75,5.84375,183200,5.84375,5.78125,4.506673336029053
26-09-1995,5.65625,5.78125,232000,5.78125,5.65625,4.409231185913086
27-09-1995,5.625,5.6875,229200,5.75,5.75,4.48231315612793
28-09-1995,5.625,5.8125,263600,5.96875,5.625,4.3848700523376465
29-09-1995,5.4375,5.59375,635600,5.59375,5.4375,4.238708972930908
02-10-1995,5.4375,5.46875,548400,5.6875,5.59375,4.3605122566223145
03-10-1995,5.5625,5.5625,304400,5.6875,5.65625,4.409231185913086
04-10-1995,5.5625,5.625,230800,5.65625,5.65625,4.409231185913086
05-10-1995,5.5,5.625,76800,5.625,5.53125,4.311791896820068
06-10-1995,5.5,5.5,259200,5.5625,5.5625,4.336150169372559
09-10-1995,5.5,5.59375,48000,5.59375,5.5,4.287426948547363
10-10-1995,5.375,5.46875,109600,5.46875,5.375,4.189988136291504
11-10-1995,5.34375,5.375,166000,5.40625,5.34375,4.189005374908447
12-10-1995,5.34375,5.375,620000,5.5625,5.5,4.317551612854004
13-10-1995,5.5,5.5,227200,5.59375,5.53125,4.34208345413208
16-10-1995,5.40625,5.53125,188800,5.53125,5.46875,4.293020248413086
17-10-1995,5.40625,5.4375,398400,5.5,5.5,4.317551612854004
18-10-1995,5.25,5.4375,1966400,5.46875,5.25,4.121301174163818
19-10-1995,5.21875,5.21875,1503600,5.3125,5.21875,4.096768379211426
20-10-1995,5.125,5.25,333600,5.25,5.125,4.023174285888672
23-10-1995,5.0,5.15625,608000,5.15625,5.0,3.925046443939209
24-10-1995,4.90625,5.0,1186800,5.0,4.9375,3.8759822845458984
25-10-1995,4.71875,4.9375,658400,4.9375,4.71875,3.7042646408081055
26-10-1995,4.6875,4.75,439600,4.8125,4.71875,3.7042646408081055
27-10-1995,4.71875,4.71875,352000,4.875,4.875,3.8269236087799072
30-10-1995,4.9375,4.9375,646800,5.0,4.96875,3.900517702102661
31-10-1995,4.96875,5.0,314800,5.03125,5.0,3.925046443939209
01-11-1995,5.0,5.0,390800,5.03125,5.0,3.925046443939209
02-11-1995,4.9375,4.96875,42800,5.0,4.9375,3.8759822845458984
03-11-1995,4.875,4.875,165600,4.96875,4.96875,3.900517702102661
06-11-1995,4.90625,4.96875,63600,4.96875,4.90625,3.851454257965088
07-11-1995,4.9375,4.9375,476400,5.03125,5.03125,3.949578046798706
08-11-1995,4.875,4.96875,907200,5.0,5.0,3.925046443939209
09-11-1995,5.03125,5.09375,1176400,5.15625,5.03125,3.949578046798706
10-11-1995,4.90625,5.03125,550000,5.03125,4.90625,3.851454257965088
13-11-1995,4.9375,4.96875,446800,5.09375,5.09375,3.998642683029175
14-11-1995,4.9375,5.03125,1045600,5.0625,4.96875,3.900517702102661
15-11-1995,4.96875,4.96875,228000,5.03125,5.0,3.925046443939209
16-11-1995,5.03125,5.03125,1046400,5.4375,5.375,4.21942663192749
17-11-1995,5.375,5.40625,906800,5.40625,5.40625,4.243959426879883
20-11-1995,5.1875,5.40625,585600,5.40625,5.1875,4.07223653793335
21-11-1995,5.1875,5.21875,363200,5.375,5.34375,4.1948933601379395
22-11-1995,5.34375,5.375,432800,5.40625,5.40625,4.243959426879883
24-11-1995,5.3125,5.40625,229200,5.40625,5.3125,4.170363903045654
27-11-1995,5.125,5.21875,851200,5.21875,5.1875,4.07223653793335
28-11-1995,5.1875,5.1875,315200,5.28125,5.25,4.121301174163818
29-11-1995,5.21875,5.28125,28800,5.28125,5.21875,4.096768379211426
30-11-1995,5.1875,5.28125,311200,5.28125,5.25,4.121301174163818
01-12-1995,5.25,5.25,308400,5.34375,5.28125,4.145833492279053
04-12-1995,5.125,5.3125,1056000,5.3125,5.3125,4.170363903045654
05-12-1995,5.3125,5.3125,461200,5.375,5.375,4.21942663192749
06-12-1995,5.40625,5.40625,685200,5.4375,5.4375,4.268492221832275
07-12-1995,5.4375,5.4375,720400,5.5,5.5,4.317551612854004
08-12-1995,5.4375,5.46875,18838800,5.65625,5.65625,4.440208435058594
11-12-1995,5.71875,5.8125,5631200,5.875,5.875,4.611931324005127
12-12-1995,5.8125,5.875,2874000,5.90625,5.875,4.611931324005127
13-12-1995,5.84375,5.875,3176800,6.09375,6.0,4.710057258605957
14-12-1995,5.90625,6.03125,2280000,6.09375,5.90625,4.636463642120361
15-12-1995,5.875,6.1875,1721200,6.21875,6.0,4.710057258605957
18-12-1995,5.8125,5.9375,974000,5.96875,5.96875,4.685523986816406
19-12-1995,5.875,5.96875,876000,6.0625,6.0625,4.759120941162109
20-12-1995,6.03125,6.0625,2001200,6.21875,6.03125,4.734589099884033
21-12-1995,6.0,6.03125,1896800,6.125,6.03125,4.734589099884033
22-12-1995,5.9375,6.09375,1115600,6.15625,6.03125,4.734589099884033
26-12-1995,6.03125,6.09375,490800,6.09375,6.03125,4.734589099884033
27-12-1995,5.9375,6.03125,582000,6.03125,5.9375,4.660994052886963
28-12-1995,5.90625,5.90625,1150800,6.15625,6.15625,4.832714080810547
29-12-1995,5.9375,6.1875,677200,6.1875,6.0,4.710057258605957
02-01-1996,6.03125,6.0625,579600,6.125,6.09375,4.783652305603027
03-01-1996,5.875,6.125,1148000,6.125,5.96875,4.685523986816406
04-01-1996,5.9375,5.96875,1644000,6.0625,5.96875,4.685523986816406
05-01-1996,5.9375,5.9375,680800,6.09375,6.0625,4.759120941162109
08-01-1996,6.0625,6.0625,779200,6.125,6.125,4.808183670043945
09-01-1996,5.9375,6.15625,948400,6.15625,6.0,4.710057258605957
10-01-1996,5.84375,6.0,516400,6.03125,5.96875,4.685523986816406
11-01-1996,5.6875,5.8125,1618400,5.8125,5.78125,4.544045448303223
12-01-1996,5.75,5.75,555200,5.8125,5.8125,4.568609237670898
15-01-1996,5.75,5.875,1159200,5.875,5.75,4.519482135772705
16-01-1996,5.71875,5.75,1683200,5.8125,5.75,4.519482135772705
17-01-1996,5.59375,5.75,2281600,5.78125,5.75,4.519482135772705
18-01-1996,5.71875,5.75,504000,5.78125,5.78125,4.544045448303223
19-01-1996,5.75,5.8125,803200,5.84375,5.75,4.519482135772705
22-01-1996,5.78125,5.78125,545600,5.875,5.875,4.617733955383301
23-01-1996,5.78125,5.84375,426400,5.90625,5.78125,4.544045448303223
24-01-1996,5.78125,5.8125,539600,5.96875,5.875,4.617733955383301
25-01-1996,5.875,5.875,693600,5.96875,5.9375,4.666858196258545
26-01-1996,5.875,5.90625,1880000,5.90625,5.875,4.617733955383301
29-01-1996,5.875,5.90625,1636800,6.0,6.0,4.715981960296631
30-01-1996,5.96875,6.0,970800,6.03125,6.03125,4.740547180175781
31-01-1996,5.96875,6.03125,650000,6.125,6.09375,4.789671421051025
01-02-1996,6.125,6.125,2182400,6.3125,6.21875,4.887917518615723
02-02-1996,6.125,6.15625,1204000,6.25,6.15625,4.838794708251953
05-02-1996,6.0625,6.09375,923200,6.15625,6.09375,4.789671421051025
06-02-1996,6.03125,6.09375,938400,6.125,6.03125,4.740547180175781
07-02-1996,6.0625,6.09375,838800,6.15625,6.125,4.814235687255859
08-02-1996,6.125,6.125,705600,6.25,6.1875,4.8633575439453125
09-02-1996,6.125,6.1875,1770400,6.28125,6.25,4.912485122680664
12-02-1996,6.15625,6.25,4923200,6.65625,6.53125,5.133544921875
13-02-1996,6.25,6.59375,3442800,6.59375,6.34375,4.986173152923584
14-02-1996,6.375,6.375,1570000,6.625,6.5625,5.158105850219727
15-02-1996,6.53125,6.53125,1637600,6.9375,6.90625,5.428292274475098
16-02-1996,6.65625,7.125,2182000,7.125,6.75,5.30548095703125
20-02-1996,6.5625,6.625,421200,6.71875,6.625,5.2072319984436035
21-02-1996,6.53125,6.5625,1553600,6.71875,6.71875,5.280917644500732
22-02-1996,6.59375,6.6875,1300800,6.75,6.6875,5.256355285644531
23-02-1996,6.5625,6.65625,660000,6.75,6.71875,5.280917644500732
26-02-1996,6.5625,6.625,556400,6.65625,6.59375,5.182669162750244
27-02-1996,6.5,6.53125,532800,6.625,6.59375,5.182669162750244
28-02-1996,6.40625,6.59375,2225600,6.71875,6.40625,5.035292148590088
29-02-1996,6.1875,6.4375,956000,6.4375,6.25,4.912485122680664
01-03-1996,6.25,6.25,402800,6.34375,6.25,4.912485122680664
04-03-1996,6.1875,6.25,809200,6.34375,6.3125,4.96160888671875
05-03-1996,6.15625,6.25,574000,6.25,6.25,4.912485122680664
06-03-1996,6.1875,6.21875,830000,6.40625,6.40625,5.035292148590088
07-03-1996,6.3125,6.375,1132000,6.40625,6.375,5.010733604431152
08-03-1996,6.1875,6.1875,278400,6.28125,6.21875,4.887917518615723
11-03-1996,6.09375,6.1875,1366400,6.1875,6.15625,4.838794708251953
12-03-1996,6.09375,6.125,1108400,6.15625,6.125,4.814235687255859
13-03-1996,6.125,6.125,1038800,6.1875,6.1875,4.8633575439453125
14-03-1996,6.25,6.25,2724800,6.40625,6.3125,4.96160888671875
15-03-1996,6.0,6.25,1051600,6.25,6.0625,4.765108108520508
18-03-1996,6.0625,6.09375,4547200,6.375,6.375,5.010733604431152
19-03-1996,6.34375,6.375,473600,6.4375,6.34375,4.986173152923584
20-03-1996,6.1875,6.375,223600,6.375,6.1875,4.8633575439453125
21-03-1996,6.125,6.1875,936800,6.28125,6.125,4.814235687255859
22-03-1996,6.09375,6.15625,1019600,6.1875,6.09375,4.789671421051025
25-03-1996,6.0625,6.0625,907200,6.28125,6.28125,4.937047004699707
26-03-1996,6.25,6.28125,216800,6.3125,6.3125,4.96160888671875
27-03-1996,6.40625,6.5,1842000,6.59375,6.53125,5.133544921875
28-03-1996,6.53125,6.53125,1270000,6.65625,6.65625,5.231795787811279
29-03-1996,6.5625,6.59375,1343600,6.625,6.59375,5.182669162750244
01-04-1996,6.5625,6.59375,752800,6.6875,6.6875,5.256355285644531
02-04-1996,6.65625,6.71875,1116400,6.875,6.84375,5.379167079925537
03-04-1996,6.71875,6.78125,1519600,6.96875,6.9375,5.452857494354248
04-04-1996,6.75,6.9375,796800,6.9375,6.875,5.403733730316162
08-04-1996,6.625,6.84375,1262800,6.84375,6.8125,5.354604721069336
09-04-1996,6.8125,6.8125,923200,6.90625,6.875,5.403733730316162
10-04-1996,6.78125,6.8125,1358000,6.96875,6.9375,5.452857494354248
11-04-1996,6.84375,6.875,932000,6.9375,6.875,5.409581184387207
12-04-1996,6.59375,6.875,1120000,6.875,6.65625,5.237456798553467
15-04-1996,6.5625,6.59375,948000,6.78125,6.75,5.311225414276123
16-04-1996,6.6875,6.78125,846000,6.78125,6.75,5.311225414276123
17-04-1996,6.65625,6.75,1494800,6.75,6.6875,5.262045860290527
18-04-1996,6.5,6.6875,1113200,6.6875,6.53125,5.139101505279541
19-04-1996,6.5,6.5,884400,6.6875,6.65625,5.237456798553467
22-04-1996,6.65625,6.65625,2457600,6.90625,6.8125,5.360403060913086
23-04-1996,6.78125,6.9375,1053200,7.0,6.90625,5.434168815612793
24-04-1996,6.90625,6.90625,1069200,7.15625,7.03125,5.532522678375244
25-04-1996,6.9375,6.96875,536800,7.0,6.9375,5.458756923675537
26-04-1996,6.78125,6.875,486400,6.9375,6.78125,5.335812091827393
29-04-1996,6.71875,6.71875,705200,6.875,6.78125,5.335812091827393
30-04-1996,6.59375,6.8125,779600,6.875,6.625,5.212867736816406
01-05-1996,6.5,6.625,808400,6.75,6.5,5.114513397216797
02-05-1996,6.46875,6.5625,373600,6.59375,6.5625,5.163689613342285
03-05-1996,6.53125,6.625,680000,6.625,6.625,5.212867736816406
06-05-1996,6.5625,6.59375,504400,6.65625,6.5625,5.163689613342285
07-05-1996,6.125,6.625,1395600,6.65625,6.21875,4.893209934234619
08-05-1996,6.1875,6.25,620400,6.34375,6.25,4.917798042297363
09-05-1996,6.25,6.25,332000,6.375,6.375,5.016156196594238
10-05-1996,6.25,6.375,818400,6.40625,6.3125,4.96697998046875
13-05-1996,6.21875,6.25,796000,6.3125,6.25,4.917798042297363
14-05-1996,6.15625,6.25,1208800,6.28125,6.15625,4.844031810760498
15-05-1996,6.09375,6.1875,2372400,6.3125,6.3125,4.96697998046875
16-05-1996,6.25,6.34375,379600,6.34375,6.28125,4.942389011383057
17-05-1996,6.1875,6.25,1017600,6.28125,6.25,4.917798042297363
20-05-1996,6.25,6.25,425600,6.375,6.34375,4.991565227508545
21-05-1996,6.3125,6.3125,2660400,6.46875,6.4375,5.065335273742676
22-05-1996,6.4375,6.4375,552000,6.5,6.5,5.114513397216797
23-05-1996,6.53125,6.5625,1154800,6.75,6.5625,5.163689613342285
24-05-1996,6.4375,6.5,1701200,6.53125,6.5,5.114513397216797
28-05-1996,6.359375,6.53125,554000,6.53125,6.4375,5.065335273742676
29-05-1996,6.3125,6.40625,613600,6.40625,6.375,5.016156196594238
30-05-1996,6.25,6.375,604000,6.375,6.3125,4.96697998046875
31-05-1996,6.25,6.34375,493200,6.375,6.3125,4.96697998046875
03-06-1996,6.28125,6.3125,211200,6.3125,6.3125,4.96697998046875
04-06-1996,6.375,6.40625,654800,6.46875,6.375,5.016156196594238
05-06-1996,6.40625,6.4375,679600,6.46875,6.4375,5.065335273742676
06-06-1996,6.25,6.4375,278800,6.4375,6.28125,4.942389011383057
07-06-1996,6.15625,6.21875,702800,6.34375,6.34375,4.991565227508545
10-06-1996,6.3125,6.34375,241200,6.34375,6.3125,4.96697998046875
11-06-1996,6.28125,6.3125,761600,6.375,6.3125,4.96697998046875
12-06-1996,6.25,6.3125,1385200,6.3125,6.28125,4.942389011383057
13-06-1996,6.09375,6.28125,985600,6.28125,6.1875,4.868621826171875
14-06-1996,6.15625,6.1875,1093200,6.21875,6.15625,4.844031810760498
17-06-1996,6.0625,6.09375,586400,6.125,6.0625,4.770265102386475
18-06-1996,5.96875,6.0,1450000,6.125,5.96875,4.696498394012451
19-06-1996,6.03125,6.03125,1416800,6.15625,6.0625,4.770265102386475
20-06-1996,6.0625,6.09375,1258400,6.125,6.09375,4.794854164123535
21-06-1996,6.0,6.09375,650800,6.09375,6.0,4.721086025238037
24-06-1996,5.96875,6.03125,948000,6.0625,6.0,4.721086025238037
25-06-1996,5.96875,6.03125,2754000,6.25,6.15625,4.844031810760498
26-06-1996,6.21875,6.21875,5256400,6.625,6.625,5.212867736816406
27-06-1996,6.53125,6.59375,4884000,6.75,6.75,5.311225414276123
28-06-1996,6.78125,6.8125,5409200,6.96875,6.96875,5.4833455085754395
01-07-1996,6.90625,6.96875,3778800,7.28125,7.28125,5.729235649108887
02-07-1996,7.125,7.15625,2342000,7.25,7.21875,5.680058002471924
03-07-1996,7.125,7.125,1392000,7.21875,7.21875,5.680058002471924
05-07-1996,7.125,7.21875,753600,7.3125,7.28125,5.729235649108887
08-07-1996,7.1875,7.25,924800,7.3125,7.25,5.704648494720459
09-07-1996,7.25,7.25,2440800,7.5625,7.5,5.901358604431152
10-07-1996,7.46875,7.5,3225600,7.65625,7.5625,5.950538158416748
11-07-1996,7.125,7.46875,3954400,7.59375,7.1875,5.661086559295654
12-07-1996,7.125,7.15625,1191200,7.21875,7.15625,5.63646936416626
15-07-1996,7.09375,7.125,1718400,7.34375,7.125,5.61185884475708
16-07-1996,6.5625,7.0625,1854400,7.09375,6.65625,5.2426557540893555
17-07-1996,6.6875,6.6875,2270000,6.96875,6.6875,5.267266750335693
18-07-1996,6.65625,6.75,990400,6.8125,6.71875,5.291882038116455
19-07-1996,6.65625,6.6875,1322800,6.71875,6.6875,5.267266750335693
22-07-1996,6.5625,6.6875,1101600,6.6875,6.59375,5.193429470062256
23-07-1996,6.53125,6.625,2303200,6.8125,6.8125,5.365723133087158
24-07-1996,6.625,6.75,327600,6.75,6.625,5.218041896820068
25-07-1996,6.375,6.625,762800,6.78125,6.375,5.021138668060303
26-07-1996,6.40625,6.40625,462800,6.5625,6.53125,5.144203186035156
29-07-1996,6.4375,6.5,676800,6.53125,6.5,5.119591236114502
30-07-1996,6.25,6.46875,1988800,6.53125,6.3125,4.971909046173096
31-07-1996,6.125,6.3125,1733600,6.3125,6.25,4.922682762145996
01-08-1996,6.25,6.25,1422800,6.375,6.3125,4.971909046173096
02-08-1996,6.3125,6.3125,1042800,6.46875,6.46875,5.09497594833374
05-08-1996,6.34375,6.46875,503200,6.59375,6.59375,5.193429470062256
06-08-1996,6.5,6.59375,495200,6.65625,6.65625,5.2426557540893555
07-08-1996,6.75,6.75,1542800,6.84375,6.84375,5.390337944030762
08-08-1996,6.75,6.84375,767600,6.875,6.84375,5.390337944030762
09-08-1996,6.71875,6.875,634400,6.875,6.71875,5.291882038116455
12-08-1996,6.625,6.75,167600,6.75,6.625,5.218041896820068
13-08-1996,6.625,6.65625,389600,6.6875,6.625,5.218041896820068
14-08-1996,6.625,6.625,333200,6.65625,6.65625,5.2426557540893555
15-08-1996,6.625,6.625,331600,6.75,6.75,5.316496849060059
16-08-1996,6.625,6.6875,329600,6.71875,6.71875,5.291882038116455
19-08-1996,6.625,6.65625,339200,6.78125,6.78125,5.341110706329346
20-08-1996,6.6875,6.8125,928800,6.8125,6.75,5.316496849060059
21-08-1996,6.59375,6.71875,837600,6.71875,6.65625,5.2426557540893555
22-08-1996,6.59375,6.65625,433200,6.6875,6.65625,5.2426557540893555
23-08-1996,6.5625,6.59375,228800,6.65625,6.625,5.218041896820068
26-08-1996,6.5625,6.625,488000,6.65625,6.65625,5.2426557540893555
27-08-1996,6.5,6.625,669600,6.625,6.5,5.119591236114502
28-08-1996,6.46875,6.5,392800,6.5,6.46875,5.09497594833374
29-08-1996,6.4375,6.46875,499200,6.5,6.46875,5.09497594833374
30-08-1996,6.375,6.4375,160800,6.46875,6.46875,5.09497594833374
03-09-1996,6.5,6.5,1298800,6.59375,6.5625,5.168816566467285
04-09-1996,6.40625,6.53125,356400,6.53125,6.46875,5.09497594833374
05-09-1996,6.375,6.4375,382800,6.5,6.4375,5.070362091064453
06-09-1996,6.3125,6.4375,2431600,6.59375,6.46875,5.09497594833374
09-09-1996,6.40625,6.46875,501200,6.53125,6.5,5.119591236114502
10-09-1996,6.46875,6.5,488400,6.53125,6.46875,5.09497594833374
11-09-1996,6.46875,6.46875,1305600,6.65625,6.5625,5.168816566467285
12-09-1996,6.28125,6.53125,1240800,6.53125,6.3125,4.971909046173096
13-09-1996,6.125,6.3125,1250400,6.3125,6.125,4.824228763580322
16-09-1996,6.03125,6.125,1839600,6.125,6.0625,4.775001049041748
17-09-1996,5.71875,5.875,3505600,5.9375,5.875,4.627320766448975
18-09-1996,5.875,5.90625,2286800,6.09375,6.0,4.725774765014648
19-09-1996,5.96875,5.96875,2160800,6.09375,6.03125,4.7503862380981445
20-09-1996,6.03125,6.03125,601200,6.09375,6.03125,4.7503862380981445
23-09-1996,6.0,6.0625,1021600,6.0625,6.03125,4.7503862380981445
24-09-1996,5.84375,6.0,1552000,6.0625,5.90625,4.651933193206787
25-09-1996,5.78125,5.90625,1691200,6.0,6.0,4.725774765014648
26-09-1996,6.03125,6.03125,856400,6.15625,6.125,4.824228763580322
27-09-1996,6.0,6.0625,1036000,6.09375,6.03125,4.7503862380981445
30-09-1996,6.0,6.0,1134400,6.21875,6.21875,4.898067474365234
01-10-1996,6.25,6.25,956400,6.3125,6.3125,4.971909046173096
02-10-1996,6.28125,6.3125,774800,6.40625,6.375,5.021138668060303
03-10-1996,6.28125,6.375,691600,6.375,6.28125,4.947296619415283
04-10-1996,6.28125,6.34375,592000,6.40625,6.28125,4.947296619415283
07-10-1996,6.25,6.28125,1552000,6.4375,6.40625,5.045749187469482
08-10-1996,6.34375,6.40625,1220000,6.46875,6.375,5.021138668060303
09-10-1996,6.25,6.375,772800,6.375,6.3125,4.971909046173096
10-10-1996,5.9375,6.21875,2254800,6.21875,6.0,4.7313947677612305
11-10-1996,5.9375,6.0,1258800,6.0625,5.9375,4.6821112632751465
14-10-1996,5.8125,5.9375,2306000,5.96875,5.84375,4.608183860778809
15-10-1996,5.84375,5.875,1424800,6.0,6.0,4.7313947677612305
16-10-1996,5.96875,6.0,1880000,6.09375,6.09375,4.805324554443359
17-10-1996,6.125,6.15625,1636400,6.25,6.25,4.928538799285889
18-10-1996,6.21875,6.25,1060800,6.40625,6.375,5.027109146118164
21-10-1996,6.25,6.34375,722000,6.375,6.25,4.928538799285889
22-10-1996,6.15625,6.25,1494400,6.3125,6.1875,4.879251480102539
23-10-1996,5.96875,6.15625,2842800,6.15625,6.0,4.7313947677612305
24-10-1996,6.0,6.03125,1593200,6.09375,6.0625,4.780679702758789
25-10-1996,6.09375,6.09375,1020000,6.21875,6.21875,4.9038920402526855
28-10-1996,6.09375,6.15625,995600,6.1875,6.09375,4.805324554443359
29-10-1996,6.03125,6.09375,1533600,6.15625,6.15625,4.854608535766602
30-10-1996,6.15625,6.15625,3300400,6.375,6.375,5.027109146118164
31-10-1996,6.375,6.375,1713200,6.53125,6.4375,5.076391696929932
01-11-1996,6.25,6.4375,1226800,6.46875,6.28125,4.95318078994751
04-11-1996,6.1875,6.25,1135200,6.28125,6.1875,4.879251480102539
05-11-1996,6.1875,6.25,730800,6.25,6.21875,4.9038920402526855
06-11-1996,6.125,6.21875,395600,6.21875,6.125,4.829967975616455
07-11-1996,6.0,6.0,1647200,6.0625,6.0,4.7313947677612305
08-11-1996,6.0,6.0625,1212400,6.15625,6.15625,4.854608535766602
11-11-1996,6.15625,6.1875,1075600,6.28125,6.25,4.928538799285889
12-11-1996,6.25,6.3125,1186400,6.375,6.25,4.928538799285889
13-11-1996,6.25,6.28125,1387200,6.28125,6.28125,4.95318078994751
14-11-1996,6.28125,6.28125,2227200,6.3125,6.3125,4.977825164794922
15-11-1996,6.21875,6.28125,1321600,6.34375,6.25,4.928538799285889
18-11-1996,6.1875,6.25,682000,6.25,6.25,4.928538799285889
19-11-1996,6.21875,6.25,2281600,6.40625,6.40625,5.051750183105469
20-11-1996,6.5625,6.75,3805200,6.78125,6.78125,5.347463607788086
21-11-1996,6.59375,6.78125,1956000,6.78125,6.625,5.224250793457031
