Date,Low,Open,Volume,High,Close,Adjusted Close
04-04-2019,92.91999816894533,94.05999755859376,5782700,94.5,93.66999816894533,84.392822265625
05-04-2019,93.94000244140624,94.4499969482422,4505400,98.76000213623048,98.62999725341795,88.86158752441406
08-04-2019,98.97000122070312,99.12000274658205,4985900,100.98999786376952,99.4800033569336,89.62739562988281
09-04-2019,97.38999938964844,98.79000091552734,4005700,99.58999633789062,98.56999969482422,88.80752563476562
10-04-2019,98.4000015258789,99.33999633789062,3066200,100.0500030517578,98.7300033569336,88.95166778564453
11-04-2019,97.66000366210938,98.37999725341795,2640900,99.76000213623048,98.7300033569336,88.95166778564453
12-04-2019,101.8499984741211,102.08999633789062,7145100,106.4800033569336,105.30999755859376,94.8799819946289
15-04-2019,101.44000244140624,104.43000030517578,6091000,104.72000122070312,102.12000274658205,92.1985321044922
16-04-2019,100.9800033569336,101.86000061035156,2990100,102.81999969482422,102.3499984741211,92.40618896484376
17-04-2019,101.43000030517578,103.19000244140624,2445500,104.4499969482422,101.83999633789062,91.94573974609376
18-04-2019,101.5199966430664,101.9499969482422,3307000,104.29000091552734,103.87000274658205,93.7785186767578
22-04-2019,104.63999938964844,105.25,3886000,107.3000030517578,107.06999969482422,96.6676254272461
23-04-2019,105.37000274658205,106.97000122070312,4242000,107.88999938964844,106.5999984741211,96.24327850341795
24-04-2019,103.83000183105467,107.5,3599200,107.58000183105467,103.94000244140624,93.84171295166016
25-04-2019,102.0199966430664,103.9800033569336,4090800,104.12999725341795,102.08000183105467,92.16242980957033
26-04-2019,97.08000183105467,101.47000122070312,4380400,102.13999938964844,97.87999725341795,88.3704605102539
29-04-2019,96.6999969482422,98.0,3512000,98.45999908447266,97.0,87.57598114013672
30-04-2019,94.97000122070312,97.98999786376952,3804600,98.37999725341795,96.0500030517578,86.71827697753906
01-05-2019,91.86000061035156,95.83999633789062,5186600,96.5,91.88999938964844,82.96243286132812
02-05-2019,89.06999969482422,91.12999725341795,5145900,92.1500015258789,89.16999816894531,80.5066909790039
03-05-2019,89.7300033569336,91.75,6354600,93.62000274658205,90.9000015258789,82.06861114501953
06-05-2019,89.54000091552734,89.9000015258789,3705900,91.87000274658205,91.23999786376952,82.37557983398438
07-05-2019,89.69999694824219,90.1500015258789,4170900,91.88999938964844,91.77999877929688,82.86312103271484
08-05-2019,91.5199966430664,91.66999816894533,3925400,94.66000366210938,94.02999877929688,84.89451599121094
09-05-2019,92.05999755859376,92.68000030517578,3395100,95.12999725341795,94.23999786376952,85.0841064453125
10-05-2019,92.5,94.36000061035156,2425700,95.25,95.0,85.7702865600586
13-05-2019,93.20999908447266,93.94000244140624,4184500,95.3000030517578,93.5,84.41600799560547
14-05-2019,93.91999816894533,93.91999816894533,2482500,95.33000183105467,94.33999633789062,85.17440032958984
15-05-2019,93.16999816894533,93.38999938964844,1950500,94.62999725341795,94.36000061035156,85.19245147705078
16-05-2019,94.79000091552734,95.0,2043800,96.25,95.18000030517578,85.93280029296875
17-05-2019,92.66999816894533,94.2699966430664,2701400,94.66999816894533,93.0199966430664,83.9826431274414
20-05-2019,92.77999877929688,93.20999908447266,2823000,94.5199966430664,93.68000030517578,84.57852172851562
21-05-2019,94.08999633789062,94.08999633789062,2537300,95.94000244140624,95.62999725341795,86.33906555175781
22-05-2019,92.38999938964844,95.0199966430664,2869900,95.37999725341795,92.91000366210938,83.88333892822266
23-05-2019,87.25,91.0500030517578,4547200,91.0500030517578,88.8499984741211,80.21778106689453
24-05-2019,86.70999908447266,89.77999877929688,3757500,90.5,87.16000366210938,78.69197845458984
28-05-2019,86.97000122070312,87.69000244140625,3148500,88.37999725341797,87.11000061035156,78.64683532714844
29-05-2019,84.27999877929688,85.6500015258789,3974100,86.63999938964844,86.43000030517578,78.03289031982422
30-05-2019,83.80999755859375,86.26000213623047,3010000,86.48999786376953,83.95999908447266,75.8028793334961
31-05-2019,81.83000183105469,82.69999694824219,4316600,83.8499984741211,81.87999725341797,73.92494201660156
03-06-2019,81.31999969482422,82.47000122070312,3333200,83.05000305175781,82.94999694824219,74.8909912109375
04-06-2019,82.58000183105469,83.44000244140625,3586200,84.9000015258789,84.27999877929688,76.09178161621094
05-06-2019,80.41000366210938,84.0999984741211,4593300,84.43000030517578,82.02999877929688,74.06037902832031
06-06-2019,82.43000030517578,82.83999633789062,3545000,84.77999877929688,84.2699966430664,76.08274841308594
07-06-2019,83.5,84.48999786376953,2462100,85.13999938964844,84.5999984741211,76.38070678710938
10-06-2019,84.81999969482422,85.08000183105469,2044100,85.83000183105469,85.19999694824219,76.92240142822266
11-06-2019,86.16000366210938,86.2300033569336,4030700,87.69000244140625,86.5,78.09610748291016
12-06-2019,84.44000244140625,85.95999908447266,2857600,86.13999938964844,85.02999877929688,76.76891326904297
13-06-2019,86.11000061035156,86.33000183105469,4218100,87.0,86.48999786376953,78.08706665039062
14-06-2019,85.05999755859375,86.55999755859375,2759500,87.33000183105469,85.16999816894531,76.89531707763672
17-06-2019,84.31999969482422,84.41000366210938,2629200,86.05000305175781,85.47000122070312,77.1661605834961
18-06-2019,86.41999816894531,86.47000122070312,3640500,89.08000183105469,88.30000305175781,79.72122192382812
19-06-2019,86.54000091552734,87.75,3318300,89.37999725341797,88.6500015258789,80.0372085571289
20-06-2019,90.4000015258789,90.4000015258789,3772800,92.0999984741211,91.4499969482422,82.565185546875
21-06-2019,91.37000274658205,91.37000274658205,4052500,93.0999984741211,92.37000274658205,83.39581298828125
24-06-2019,90.36000061035156,91.83999633789062,2311500,92.9499969482422,90.55999755859376,81.76165008544922
25-06-2019,89.13999938964844,90.41999816894533,2641900,90.7699966430664,90.04000091552734,81.29216766357422
26-06-2019,90.72000122070312,91.5,3422300,94.37999725341795,93.08999633789062,84.04583740234375
27-06-2019,91.88999938964844,92.88999938964844,2112400,93.79000091552734,92.11000061035156,83.16105651855469
28-06-2019,91.66999816894533,92.22000122070312,3735900,93.47000122070312,93.16000366210938,84.10904693603516
01-07-2019,92.4499969482422,95.0,2355200,95.29000091552734,93.08999633789062,84.04583740234375
02-07-2019,87.3499984741211,92.66999816894533,5193200,92.98999786376952,87.55999755859375,79.05310821533203
03-07-2019,86.12999725341797,88.0,2794500,88.08999633789062,87.19999694824219,78.72807312011719
05-07-2019,87.19999694824219,87.37000274658203,5390500,89.0,88.56999969482422,79.96498107910156
08-07-2019,87.25,87.94999694824219,3219400,91.04000091552734,90.1500015258789,81.39148712158203
09-07-2019,88.66000366210938,89.70999908447266,2626900,90.2300033569336,89.1500015258789,80.4886245727539
10-07-2019,89.9000015258789,90.05000305175781,4298700,92.0999984741211,90.66000366210938,81.85194396972656
11-07-2019,90.08999633789062,91.1500015258789,3640300,91.62000274658205,90.83999633789062,82.01443481445312
12-07-2019,90.41999816894533,90.83999633789062,2393000,91.47000122070312,90.9000015258789,82.06861114501953
15-07-2019,88.58000183105469,91.16000366210938,3432500,91.36000061035156,88.75,80.12748718261719
16-07-2019,86.26000213623047,88.79000091552734,3012000,88.79000091552734,87.0,78.80323028564453
17-07-2019,85.11000061035156,87.2300033569336,3693500,87.7300033569336,85.19000244140625,77.16377258300781
18-07-2019,84.5199966430664,84.94999694824219,3330800,85.55999755859375,85.43000030517578,77.38115692138672
19-07-2019,84.9000015258789,85.72000122070312,3130200,87.4000015258789,87.04000091552734,78.8394775390625
22-07-2019,86.9000015258789,87.37000274658203,3331000,88.7699966430664,87.20999908447266,78.99346160888672
23-07-2019,86.45999908447266,87.13999938964844,2908200,88.37000274658203,87.58999633789062,79.33763885498047
24-07-2019,87.33999633789062,87.45999908447266,1849300,88.73999786376953,87.68000030517578,79.41917419433594
25-07-2019,85.0199966430664,88.0199966430664,2945100,88.18000030517578,85.47000122070312,77.41739654541016
26-07-2019,83.47000122070312,85.0199966430664,3026100,85.19999694824219,84.29000091552734,76.34855651855469
29-07-2019,82.01000213623047,84.05999755859375,3407000,84.38999938964844,83.91999816894531,76.01342010498047
30-07-2019,83.05000305175781,83.5999984741211,3707600,86.7300033569336,86.05999755859375,77.9518051147461
31-07-2019,85.25,85.86000061035156,3144300,88.12999725341797,85.8499984741211,77.76158905029297
01-08-2019,79.44999694824219,84.0,8080000,84.30000305175781,81.06999969482422,73.43194580078125
02-08-2019,80.05999755859375,83.05000305175781,6795800,87.83999633789062,82.45999908447266,74.69097900390625
05-08-2019,78.80000305175781,80.25,5476400,81.62999725341797,79.0,71.55696868896484
06-08-2019,76.87000274658203,79.52999877929688,4257200,79.91000366210938,78.27999877929688,70.9048080444336
07-08-2019,74.83999633789062,76.6500015258789,5249900,78.0999984741211,77.55000305175781,70.24357604980469
08-08-2019,77.5999984741211,78.0,6235200,80.38999938964844,80.36000061035156,72.78882598876953
09-08-2019,79.26000213623047,80.80000305175781,2787800,80.87999725341797,79.37000274658203,71.89209747314453
12-08-2019,77.80000305175781,78.75,4615300,79.62999725341797,77.91999816894531,70.5787124633789
13-08-2019,76.83000183105469,77.48999786376953,4881100,79.93000030517578,78.5199966430664,71.12218475341797
14-08-2019,74.26000213623047,76.4800033569336,6971500,76.87999725341797,75.0199966430664,67.95194244384766
15-08-2019,73.94999694824219,74.91000366210938,4008300,75.5199966430664,74.94000244140625,67.8794937133789
16-08-2019,74.83000183105469,75.19000244140625,2540900,76.56999969482422,75.91999816894531,68.76714324951172
19-08-2019,76.16000366210938,77.41999816894531,3530000,78.19000244140625,77.80999755859375,70.47907257080078
20-08-2019,76.19999694824219,77.25,3039100,77.38999938964844,76.69000244140625,69.464599609375
21-08-2019,76.3499984741211,77.58999633789062,2886800,78.12999725341797,77.22000122070312,69.9446792602539
22-08-2019,75.47000122070312,77.62000274658203,2299800,77.75,75.51000213623047,68.39578247070312
23-08-2019,71.36000061035156,74.18000030517578,5160000,74.86000061035156,71.75,64.9900131225586
26-08-2019,71.37000274658203,72.73999786376953,2688200,73.22000122070312,72.25,65.44293212890625
27-08-2019,70.83000183105469,72.93000030517578,2649300,72.98999786376953,71.66000366210938,64.90850067138672
28-08-2019,71.62000274658203,71.66999816894531,3055900,73.4800033569336,72.52999877929688,65.69654083251953
29-08-2019,73.04000091552734,73.19000244140625,3726700,75.83999633789062,74.4800033569336,67.46282958984375
30-08-2019,73.3499984741211,74.58999633789062,3164000,75.41000366210938,74.19000244140625,67.20014190673828
03-09-2019,72.38999938964844,72.55999755859375,2467000,74.3499984741211,74.12999725341797,67.14579772949219
04-09-2019,74.91999816894531,75.69999694824219,2951100,76.37000274658203,75.56999969482422,68.45011901855469
05-09-2019,75.11000061035156,75.83000183105469,4059700,77.31999969482422,75.5999984741211,68.477294921875
06-09-2019,73.4800033569336,74.7300033569336,3794000,76.52999877929688,76.44000244140625,69.23816680908203
09-09-2019,77.05000305175781,77.25,5133600,80.41999816894531,80.0,72.4627456665039
10-09-2019,79.72000122070312,80.38999938964844,4342700,82.38999938964844,80.0999984741211,72.55332946777344
11-09-2019,79.80000305175781,80.87999725341797,3585300,82.75,81.02999877929688,73.39570617675781
12-09-2019,78.0,79.22000122070312,3200200,80.47000122070312,79.68000030517578,72.17288970947266
13-09-2019,78.12000274658203,80.16999816894531,4123500,81.08999633789062,79.38999938964844,71.91022491455078
16-09-2019,83.2300033569336,85.98999786376953,11888900,87.0,85.63999938964844,77.57138061523438
17-09-2019,80.83000183105469,84.4000015258789,4902200,84.98999786376953,81.22000122070312,73.56781005859375
18-09-2019,79.68000030517578,80.0,3876100,81.38999938964844,81.31999969482422,73.65837860107422
19-09-2019,80.97000122070312,82.38999938964844,4099100,82.47000122070312,81.61000061035156,73.92106628417969
20-09-2019,80.08000183105469,81.98999786376953,4754700,82.13999938964844,81.0,73.36852264404297
23-09-2019,79.70999908447266,80.0,3749100,81.0,80.12999725341797,72.58049011230469
24-09-2019,77.87999725341797,78.75,4323900,79.7699966430664,78.55999755859375,71.15841674804688
25-09-2019,76.11000061035156,77.7300033569336,3236200,78.43000030517578,76.7699966430664,69.53706359863281
26-09-2019,74.43000030517578,76.0,4100200,76.41999816894531,75.08999633789062,68.0153579711914
27-09-2019,73.48999786376953,74.0,3422300,75.44999694824219,74.9800033569336,67.91571807861328
30-09-2019,73.77999877929688,74.37999725341797,3159100,74.87000274658203,74.22000122070312,67.2273178100586
01-10-2019,71.4000015258789,74.79000091552734,4155300,74.79000091552734,71.58000183105469,64.83605194091797
02-10-2019,69.47000122070312,71.33000183105469,4289200,72.29000091552734,69.80000305175781,63.223751068115234
03-10-2019,69.0999984741211,69.16000366210938,3556500,71.08999633789062,70.83999633789062,64.16575622558594
04-10-2019,69.54000091552734,70.70999908447266,2525300,71.41999816894531,70.91999816894531,64.23824310302734
07-10-2019,69.7300033569336,71.4000015258789,3736000,71.44000244140625,69.76000213623047,63.18751525878906
08-10-2019,68.11000061035156,68.88999938964844,5544600,69.75,68.7300033569336,62.25456237792969
09-10-2019,68.08999633789062,69.70999908447266,3575300,70.08000183105469,68.58999633789062,62.12775039672852
10-10-2019,68.0999984741211,68.69000244140625,3057700,69.61000061035156,68.91000366210938,62.417606353759766
11-10-2019,69.05000305175781,69.87999725341797,5662700,70.7699966430664,69.25,62.72556686401367
14-10-2019,66.0199966430664,68.06999969482422,5351700,68.5199966430664,68.19000244140625,61.76543045043945
15-10-2019,67.30000305175781,67.5999984741211,6107900,69.79000091552734,69.25,62.72556686401367
16-10-2019,68.16000366210938,68.51000213623047,4342100,69.70999908447266,68.18000030517578,62.014286041259766
17-10-2019,66.4000015258789,68.37000274658203,4324000,68.69000244140625,66.7699966430664,60.73179244995117
18-10-2019,64.44000244140625,66.69000244140625,6595300,66.9000015258789,64.44000244140625,58.61251068115234
21-10-2019,64.33000183105469,64.4000015258789,5603500,67.7300033569336,67.66000366210938,61.54132080078125
22-10-2019,67.4000015258789,67.87000274658203,4476400,70.69000244140625,69.56999969482422,63.278587341308594
23-10-2019,69.05999755859375,69.6500015258789,5533200,72.73999786376953,71.94000244140625,65.43424987792969
24-10-2019,70.66999816894531,72.29000091552734,4249800,72.55999755859375,71.97000122070312,65.46154022216797
25-10-2019,71.19999694824219,71.83000183105469,2398800,72.80999755859375,72.4800033569336,65.92542266845703
28-10-2019,71.0199966430664,73.08999633789062,3211400,73.33000183105469,71.05000305175781,64.624755859375
29-10-2019,70.05000305175781,70.66000366210938,3939500,72.27999877929688,71.80999755859375,65.31600952148438
30-10-2019,69.48999786376953,72.01000213623047,3361400,72.5,69.62000274658203,63.32405853271485
31-10-2019,68.11000061035156,69.16999816894531,5272200,69.7300033569336,69.30999755859375,63.04209899902344
01-11-2019,69.63999938964844,70.05999755859375,3033100,71.37999725341797,71.1500015258789,64.71570587158203
04-11-2019,72.37000274658203,72.41999816894531,6808500,74.23999786376953,73.69000244140625,67.0260009765625
05-11-2019,73.41999816894531,74.4000015258789,4412800,75.36000061035156,74.01000213623047,67.31707000732422
06-11-2019,70.68000030517578,73.48999786376953,5247800,73.69999694824219,71.41999816894531,64.96128845214844
07-11-2019,71.87000274658203,72.44999694824219,7641200,75.5999984741211,74.73999786376953,67.98104858398438
08-11-2019,73.13999938964844,74.0,3136400,75.27999877929688,74.69999694824219,67.94467163085938
11-11-2019,72.91999816894531,73.5,2905800,74.5999984741211,73.81999969482422,67.14423370361328
12-11-2019,72.4800033569336,74.0999984741211,3262000,74.37999725341797,73.29000091552734,66.66216278076172
13-11-2019,71.0999984741211,72.66999816894531,3847700,72.94000244140625,72.61000061035156,66.0436782836914
14-11-2019,72.11000061035156,72.87000274658203,3425200,74.23999786376953,72.3499984741211,65.80718231201172
15-11-2019,72.54000091552734,72.80999755859375,3505300,74.01000213623047,73.4800033569336,66.83499145507812
18-11-2019,70.69999694824219,72.72000122070312,2965800,72.94000244140625,71.26000213623047,64.81575775146484
19-11-2019,69.77999877929688,71.36000061035156,3763500,71.38999938964844,70.4000015258789,64.03351593017578
20-11-2019,70.30999755859375,70.73999786376953,4027600,73.36000061035156,72.05999755859375,65.54340362548828
21-11-2019,71.30000305175781,72.05999755859375,4147700,73.45999908447266,73.31999969482422,66.68946075439453
22-11-2019,72.83000183105469,73.51000213623047,2903300,74.30999755859375,72.98999786376953,66.38929748535156
25-11-2019,72.06999969482422,72.81999969482422,3129200,73.58999633789062,73.5199966430664,66.87138366699219
26-11-2019,71.8499984741211,73.4800033569336,3320000,73.68000030517578,71.91000366210938,65.40697479248047
27-11-2019,71.33000183105469,72.06999969482422,2346500,72.55999755859375,72.3499984741211,65.80718231201172
29-11-2019,70.45999908447266,71.37000274658203,1497600,71.8499984741211,70.9000015258789,64.48831939697266
02-12-2019,70.70999908447266,71.62000274658203,3938000,72.62000274658203,70.79000091552734,64.38825988769531
03-12-2019,68.08000183105469,70.01000213623047,4555500,70.12000274658203,68.77999877929688,62.56001663208008
04-12-2019,69.62999725341797,69.72000122070312,5310600,72.55000305175781,72.05000305175781,65.53431701660156
05-12-2019,70.16000366210938,72.5199966430664,3480500,72.80999755859375,70.58999633789062,64.20635223388672
06-12-2019,70.69999694824219,70.91000366210938,4368000,74.12000274658203,73.95999908447266,67.27157592773438
09-12-2019,72.77999877929688,73.27999877929688,3752000,74.9000015258789,74.51000213623047,67.7718505859375
10-12-2019,73.73999786376953,74.05000305175781,3646900,75.0999984741211,74.83999633789062,68.07200622558594
11-12-2019,74.05000305175781,74.76000213623047,3158900,75.02999877929688,74.66999816894531,67.91737365722656
12-12-2019,74.37000274658203,74.66000366210938,3754800,77.12000274658203,76.70999908447266,69.77288818359375
13-12-2019,75.38999938964844,77.45999908447266,2728900,77.6500015258789,75.48999786376953,68.66322326660156
16-12-2019,75.98999786376953,76.25,6744500,78.16000366210938,77.91000366210938,70.86438751220703
17-12-2019,78.05000305175781,78.12000274658203,5506500,79.5,78.80999755859375,71.6829833984375
18-12-2019,78.80999755859375,78.91000366210938,7742700,81.36000061035156,80.58999633789062,73.30200958251953
19-12-2019,79.69000244140625,80.16999816894531,6791700,81.66000366210938,81.25,73.90232849121094
20-12-2019,81.4000015258789,82.72000122070312,9119000,83.62000274658203,82.66000366210938,75.18482208251953
23-12-2019,81.81999969482422,82.36000061035156,3159100,83.5,83.37999725341797,75.83970642089844
24-12-2019,83.52999877929688,83.80000305175781,1236200,84.5,83.80999755859375,76.2308120727539
26-12-2019,83.47000122070312,84.29000091552734,2588800,84.69000244140625,83.6500015258789,76.08529663085938
27-12-2019,82.93000030517578,84.06999969482422,1868300,84.08999633789062,83.13999938964844,75.62140655517578
30-12-2019,82.2300033569336,82.9000015258789,2251800,83.5,82.38999938964844,74.93924713134766
31-12-2019,81.37999725341797,81.8499984741211,2238900,83.77999877929688,83.76000213623047,76.18533325195312
02-01-2020,83.54000091552734,84.31999969482422,2496400,84.61000061035156,84.13999938964844,76.53097534179688
03-01-2020,84.05999755859375,85.58000183105469,3716200,86.8499984741211,84.98999786376953,77.3041000366211
06-01-2020,85.77999877929688,85.9000015258789,8485500,89.29000091552734,88.44000244140625,80.4421157836914
07-01-2020,87.2300033569336,88.62999725341797,4320000,89.33000183105469,89.29000091552734,81.21524810791016
08-01-2020,86.97000122070312,89.23999786376953,5337300,89.54000091552734,87.33999633789062,79.44158935546875
09-01-2020,84.70999908447266,86.55000305175781,6908200,88.37000274658203,88.25,80.26930236816406
10-01-2020,86.1500015258789,87.55000305175781,2950600,87.61000061035156,86.2699966430664,78.46834564208984
13-01-2020,84.33999633789062,85.87999725341797,3399700,85.97000122070312,85.5199966430664,77.78618621826172
14-01-2020,84.55999755859375,85.37000274658203,4281700,86.66000366210938,86.33000183105469,78.52293395996094
15-01-2020,85.25,85.68000030517578,2562500,86.7699966430664,86.73999786376953,78.8958511352539
16-01-2020,86.66999816894531,86.95999908447266,5128600,88.08999633789062,87.0199966430664,79.4142074584961
17-01-2020,84.30000305175781,87.06999969482422,4542600,87.13999938964844,85.30999755859375,77.85366821289062
21-01-2020,84.02999877929688,85.0999984741211,4522700,86.16999816894531,84.04000091552734,76.69466400146484
22-01-2020,82.77999877929688,84.04000091552734,4030400,84.0999984741211,83.08999633789062,75.82769012451172
23-01-2020,80.6500015258789,82.0999984741211,3369400,82.23999786376953,81.83000183105469,74.67782592773438
24-01-2020,78.97000122070312,81.19999694824219,3128800,81.20999908447266,79.8499984741211,72.87088775634766
27-01-2020,76.61000061035156,77.58999633789062,2968300,78.2699966430664,76.63999938964844,69.94145965576172
28-01-2020,76.56999969482422,77.47000122070312,2794300,77.93000030517578,77.05000305175781,70.31561279296875
29-01-2020,75.04000091552734,77.66999816894531,2701000,77.94000244140625,75.13999938964844,68.57254791259766
30-01-2020,73.58999633789062,74.12999725341797,4535800,75.98999786376953,75.81999969482422,69.193115234375
31-01-2020,72.51000213623047,74.31999969482422,5004100,74.80000305175781,72.91000366210938,66.53746795654297
03-02-2020,71.2699966430664,72.83000183105469,3803200,73.0,71.37000274658203,65.1320571899414
04-02-2020,72.9000015258789,72.91000366210938,4725200,74.80000305175781,73.62000274658203,67.18540954589844
05-02-2020,75.27999877929688,75.5,3724800,77.9800033569336,77.05000305175781,70.31561279296875
06-02-2020,75.22000122070312,77.4000015258789,2128800,77.4000015258789,75.87000274658203,69.23875427246094
07-02-2020,73.9000015258789,74.8499984741211,2257800,75.31999969482422,74.3499984741211,67.85160827636719
10-02-2020,73.05999755859375,73.9000015258789,2865400,74.13999938964844,73.69999694824219,67.2584228515625
11-02-2020,74.30999755859375,75.12999725341797,2191500,75.41000366210938,74.79000091552734,68.25314331054688
12-02-2020,75.16999816894531,76.5999984741211,2860000,76.91000366210938,75.37999725341797,68.79158782958984
13-02-2020,74.75,75.0,2197600,76.04000091552734,75.68000030517578,69.06535339355469
14-02-2020,73.83999633789062,76.0,2087700,76.22000122070312,74.91999816894531,68.37178802490234
18-02-2020,73.52999877929688,74.52999877929688,2520800,75.06999969482422,74.52999877929688,68.01587677001953
19-02-2020,74.93000030517578,74.93000030517578,2765200,77.66999816894531,77.27999877929688,70.52550506591797
20-02-2020,75.69000244140625,76.79000091552734,2447100,77.37000274658203,75.98999786376953,69.34825897216797
21-02-2020,73.6500015258789,74.87000274658203,2963700,74.87000274658203,74.20999908447266,67.72384643554688
24-02-2020,69.4000015258789,71.33000183105469,3854400,71.33000183105469,69.91000366210938,63.79966354370117
25-02-2020,65.55000305175781,70.1500015258789,6558100,70.31999969482422,66.98999786376953,61.1348876953125
26-02-2020,63.08000183105469,67.72000122070312,5371300,67.7699966430664,63.20000076293945,57.67614364624024
27-02-2020,58.84999847412109,60.59000015258789,7699300,63.560001373291016,60.0,54.75584030151367
28-02-2020,56.34000015258789,57.29999923706055,11070400,63.2599983215332,63.2599983215332,57.73090744018555
02-03-2020,60.15999984741211,63.810001373291016,8008500,63.900001525878906,62.86000061035156,57.36585998535156
03-03-2020,60.88999938964844,62.93000030517578,6432200,65.41000366210938,62.43000030517578,56.973445892333984
04-03-2020,62.27999877929688,63.619998931884766,5455100,64.5,64.08000183105469,58.47922897338867
05-03-2020,60.709999084472656,61.77999877929688,4905100,63.7400016784668,61.869998931884766,56.4623908996582
06-03-2020,53.869998931884766,58.91999816894531,9915000,59.900001525878906,55.29999923706055,50.46662521362305
09-03-2020,34.88999938964844,38.220001220703125,18938200,40.18000030517578,37.59999847412109,34.31365203857422
10-03-2020,35.810001373291016,39.880001068115234,13804500,41.709999084472656,41.59999847412109,37.96404266357422
11-03-2020,37.560001373291016,39.45000076293945,13208700,39.95000076293945,38.86000061035156,35.46352767944336
12-03-2020,31.65999984741211,35.189998626708984,12384000,35.95000076293945,32.5,29.659408569335938
13-03-2020,30.25,35.25,13961100,35.81999969482422,34.79999923706055,31.758378982543945
16-03-2020,28.11000061035156,29.989999771118164,10311100,36.09000015258789,31.100000381469727,28.38177299499512
17-03-2020,29.6200008392334,31.38999938964844,10122100,33.2400016784668,30.88999938964844,28.19012451171875
18-03-2020,27.0,28.190000534057617,7759600,30.149999618530277,29.76000022888184,27.158891677856445
19-03-2020,29.76000022888184,29.940000534057617,9407700,34.54999923706055,33.220001220703125,30.316482543945312
20-03-2020,33.52000045776367,34.689998626708984,12411400,37.2400016784668,34.88999938964844,31.840518951416016
23-03-2020,33.11000061035156,34.599998474121094,8642100,36.52999877929688,34.540000915527344,31.521106719970703
24-03-2020,35.720001220703125,36.43999862670898,10485900,40.0,39.79999923706055,36.32136535644531
25-03-2020,36.70000076293945,39.09000015258789,9492500,41.56999969482422,39.68999862670898,36.22098159790039
26-03-2020,36.119998931884766,36.119998931884766,9263100,40.20000076293945,39.52999877929688,36.07496643066406
27-03-2020,34.880001068115234,37.83000183105469,10078900,38.38999938964844,36.0,32.85349655151367
30-03-2020,33.52000045776367,35.0099983215332,9148200,35.470001220703125,34.97999954223633,31.922645568847656
31-03-2020,35.18000030517578,36.900001525878906,7816000,38.61000061035156,35.91999816894531,32.78049087524414
01-04-2020,33.54999923706055,34.56999969482422,6250300,35.470001220703125,34.599998474121094,31.57586097717285
02-04-2020,36.290000915527344,36.630001068115234,12694000,43.45000076293945,38.29999923706055,34.95246887207031
03-04-2020,38.43000030517578,40.0,13593900,41.290000915527344,39.88999938964844,36.40349960327149
06-04-2020,37.65999984741211,40.68000030517578,9030700,40.93999862670898,39.43000030517578,35.98370742797852
07-04-2020,40.61000061035156,42.0,7531800,42.93999862670898,41.33000183105469,37.71764373779297
08-04-2020,42.16999816894531,42.2599983215332,7217500,45.38999938964844,45.290000915527344,41.33152770996094
09-04-2020,42.54999923706055,47.25,10998400,47.58000183105469,44.81999969482422,40.90260696411133
13-04-2020,42.7400016784668,46.20000076293945,5758200,46.97999954223633,43.290000915527344,39.50634002685547
14-04-2020,41.77000045776367,42.84999847412109,5410700,43.47999954223633,42.22999954223633,38.53897857666016
15-04-2020,38.77999877929688,39.369998931884766,6256000,40.400001525878906,39.88999938964844,36.72965621948242
16-04-2020,36.400001525878906,39.54999923706055,6638800,39.650001525878906,36.52000045776367,33.626651763916016
17-04-2020,37.4900016784668,37.54999923706055,10886100,42.130001068115234,41.84000015258789,38.52516555786133
20-04-2020,38.84000015258789,39.02999877929688,6680800,43.02999877929688,41.16999816894531,37.90824890136719
21-04-2020,39.27000045776367,39.27000045776367,6313900,41.63999938964844,40.5,37.29132461547852
22-04-2020,41.59000015258789,42.68999862670898,5273600,43.33000183105469,43.150001525878906,39.731388092041016
23-04-2020,44.08000183105469,45.25,7565400,46.119998931884766,44.220001220703125,40.716609954833984
24-04-2020,42.810001373291016,45.0,5192300,45.33000183105469,43.36000061035156,39.924747467041016
27-04-2020,42.04999923706055,42.86000061035156,4777200,45.08000183105469,44.540000915527344,41.01125717163086
28-04-2020,44.5,46.040000915527344,4409600,46.810001373291016,44.97999954223633,41.41639709472656
29-04-2020,45.470001220703125,47.20000076293945,6661500,47.900001525878906,47.720001220703125,43.9393196105957
30-04-2020,45.86000061035156,47.79999923706055,5449300,49.11000061035156,47.5099983215332,43.74595260620117
01-05-2020,43.84000015258789,46.13999938964844,5699200,46.959999084472656,44.56999969482422,41.03888320922852
04-05-2020,43.2599983215332,43.5,7710200,46.79999923706055,46.7400016784668,43.03696441650391
05-05-2020,45.70000076293945,48.5,7181600,49.20000076293945,46.04999923706055,42.4016227722168
06-05-2020,45.59999847412109,46.13999938964844,3247100,47.08000183105469,45.84000015258789,42.20825958251953
07-05-2020,47.38999938964844,47.56999969482422,5907500,49.40999984741211,48.310001373291016,44.48257446289063
08-05-2020,48.459999084472656,49.29999923706055,7284300,51.5099983215332,51.45000076293945,47.37380599975586
11-05-2020,49.5,50.7400016784668,5279100,51.970001220703125,49.84000015258789,45.891361236572266
12-05-2020,48.709999084472656,50.0099983215332,5286000,50.540000915527344,49.720001220703125,45.780860900878906
13-05-2020,47.54999923706055,49.45000076293945,5768000,49.45000076293945,48.20000076293945,44.381290435791016
14-05-2020,45.90999984741211,47.13999938964844,5903800,48.959999084472656,47.560001373291016,43.79199600219727
15-05-2020,46.93999862670898,47.09000015258789,4004800,48.810001373291016,47.68000030517578,43.902488708496094
18-05-2020,50.0099983215332,50.5,6340600,52.68000030517578,52.43999862670898,48.28536987304688
19-05-2020,50.58000183105469,52.290000915527344,3559100,52.77000045776367,50.65999984741211,46.646392822265625
20-05-2020,51.5099983215332,51.650001525878906,3303600,53.38999938964844,52.650001525878906,48.47873306274414
21-05-2020,51.61000061035156,52.95000076293945,3881100,53.560001373291016,52.31999969482422,48.17487716674805
22-05-2020,50.95000076293945,52.209999084472656,2500200,52.380001068115234,52.27999877929688,48.13804244995117
26-05-2020,51.29999923706055,54.36000061035156,5685300,54.369998931884766,51.43999862670898,47.36458969116211
27-05-2020,50.33000183105469,52.27999877929688,3968600,52.7400016784668,52.72999954223633,48.55239486694336
28-05-2020,51.310001373291016,52.61000061035156,4688700,53.09999847412109,51.63999938964844,47.54874801635742
29-05-2020,49.93000030517578,51.47999954223633,6602700,51.47999954223633,50.970001220703125,46.93183517456055
01-06-2020,50.0,50.720001220703125,3263900,51.91999816894531,51.810001373291016,47.70528793334961
02-06-2020,52.34999847412109,52.5,4824400,54.84999847412109,54.810001373291016,50.46760177612305
03-06-2020,53.93000030517578,56.11000061035156,4638800,56.2599983215332,55.369998931884766,50.98323440551758
04-06-2020,54.150001525878906,55.0,4361200,55.68999862670898,55.150001525878906,50.780670166015625
05-06-2020,58.220001220703125,59.209999084472656,6327200,59.86000061035156,59.310001373291016,54.611083984375
08-06-2020,59.09999847412109,61.970001220703125,6075100,62.43000030517578,62.11000061035156,57.18925094604492
09-06-2020,58.650001525878906,59.560001373291016,6336900,61.41999816894531,59.470001220703125,54.75840759277344
10-06-2020,55.59999847412109,58.02999877929688,6349300,58.11000061035156,55.630001068115234,51.22263717651367
11-06-2020,51.06999969482422,51.77000045776367,5890600,54.93000030517578,51.150001525878906,47.097564697265625
12-06-2020,50.65999984741211,53.84999847412109,4552500,54.18000030517578,52.56999969482422,48.40507125854492
15-06-2020,49.27000045776367,49.72999954223633,5415200,52.7400016784668,52.209999084472656,48.07359313964844
16-06-2020,51.900001525878906,54.54999923706055,4660800,54.93999862670898,54.59999847412109,50.27423858642578
17-06-2020,52.43999862670898,54.5,3933500,54.54999923706055,52.47999954223633,48.32220077514648
18-06-2020,51.470001220703125,52.0,3444300,53.84000015258789,52.93000030517578,48.73654556274414
19-06-2020,52.27000045776367,55.43999862670898,7928400,55.4900016784668,52.29999923706055,48.15645599365234
22-06-2020,51.33000183105469,51.9900016784668,3335400,52.81999969482422,52.41999816894531,48.26696014404297
23-06-2020,52.0,53.18999862670898,3850000,53.5,52.459999084472656,48.30378723144531
24-06-2020,48.90999984741211,51.56999969482422,4258300,52.29999923706055,48.95000076293945,45.07187271118164
25-06-2020,48.0099983215332,48.43000030517578,3504500,50.79999923706055,50.72999954223633,46.710845947265625
26-06-2020,48.40999984741211,50.15999984741211,4342700,50.2599983215332,48.7599983215332,44.89691925048828
29-06-2020,48.43000030517578,49.02999877929688,2634100,49.84999847412109,49.650001525878906,45.71641159057617
30-06-2020,48.77999877929688,49.04999923706055,3104900,51.0099983215332,50.65999984741211,46.646392822265625
01-07-2020,49.77999877929688,51.02999877929688,3394800,51.9900016784668,49.86000061035156,45.90977096557617
02-07-2020,50.45000076293945,51.16999816894531,4166400,51.630001068115234,50.52000045776367,46.51748275756836
06-07-2020,49.869998931884766,51.220001220703125,2381400,52.09000015258789,50.40999984741211,46.41619873046875
07-07-2020,48.02000045776367,49.68000030517578,3779700,49.77999877929688,48.11000061035156,44.29841613769531
08-07-2020,47.16999816894531,48.27999877929688,3867400,48.7599983215332,47.43999862670898,43.68149948120117
09-07-2020,44.27999877929688,47.27999877929688,5209700,47.43999862670898,44.34000015258789,40.82709884643555
10-07-2020,44.040000915527344,44.34000015258789,6245700,45.56999969482422,45.400001525878906,41.80312347412109
13-07-2020,44.540000915527344,45.869998931884766,3817700,46.13999938964844,44.95000076293945,41.38877487182617
14-07-2020,44.470001220703125,44.84000015258789,3695600,47.29999923706055,47.27999877929688,43.5341796875
15-07-2020,46.29999923706055,48.290000915527344,4202100,48.40999984741211,47.459999084472656,43.69991302490234
16-07-2020,46.13999938964844,46.52000045776367,3080100,48.34999847412109,47.81999969482422,44.382080078125
17-07-2020,46.86000061035156,47.83000183105469,2949500,48.88999938964844,47.15999984741211,43.76952362060547
20-07-2020,46.93000030517578,46.93000030517578,4004100,48.650001525878906,47.70000076293945,44.27069854736328
21-07-2020,48.70000076293945,48.70000076293945,4584300,50.9900016784668,50.41999816894531,46.79515075683594
22-07-2020,49.0099983215332,49.61000061035156,2565000,50.47999954223633,50.18999862670898,46.58168411254883
23-07-2020,48.630001068115234,49.58000183105469,4936400,50.08000183105469,48.84999847412109,45.3380241394043
24-07-2020,48.619998931884766,49.13999938964844,3055000,49.97999954223633,49.040000915527344,45.51436996459961
27-07-2020,48.16999816894531,48.810001373291016,2474800,49.4900016784668,48.560001373291016,45.06887435913086
28-07-2020,47.18999862670898,48.11000061035156,2763300,48.68999862670898,47.27000045776367,43.871612548828125
29-07-2020,46.95000076293945,47.38999938964844,3016100,48.52000045776367,48.5,45.01318740844727
30-07-2020,46.09000015258789,47.34000015258789,3226500,47.68999862670898,46.58000183105469,43.23122024536133
31-07-2020,45.84999847412109,45.90999984741211,2885500,46.880001068115234,46.84999847412109,43.48180389404297
03-08-2020,45.90999984741211,46.86000061035156,4004500,47.06999969482422,46.369998931884766,43.036319732666016
04-08-2020,46.09000015258789,46.380001068115234,5754300,48.77000045776367,48.459999084472656,44.9760627746582
05-08-2020,49.52000045776367,49.869998931884766,5052800,51.11000061035156,50.75,47.10143280029297
06-08-2020,50.2599983215332,50.40999984741211,3290600,51.08000183105469,50.88999938964844,47.23135757446289
07-08-2020,45.06999969482422,47.0,8528400,49.18999862670898,48.810001373291016,45.30089569091797
10-08-2020,48.63999938964844,48.9900016784668,4088700,50.630001068115234,50.459999084472656,46.832275390625
11-08-2020,49.22999954223633,52.0,5528600,52.77999877929688,49.41999816894531,45.86704635620117
12-08-2020,48.619998931884766,50.33000183105469,4644300,50.34000015258789,49.09000015258789,45.56077194213867
13-08-2020,47.380001068115234,48.77000045776367,3394600,49.150001525878906,47.41999816894531,44.01082992553711
14-08-2020,46.93000030517578,47.34999847412109,3498900,47.97999954223633,47.970001220703125,44.52129364013672
17-08-2020,46.09000015258789,47.900001525878906,4693800,47.900001525878906,46.540000915527344,43.194095611572266
18-08-2020,46.18000030517578,46.31999969482422,3215400,47.18000030517578,46.34999847412109,43.01776123046875
19-08-2020,45.43999862670898,46.20000076293945,2878900,46.560001373291016,45.61000061035156,42.33095932006836
20-08-2020,44.09000015258789,44.959999084472656,4225500,45.29999923706055,44.09999847412109,40.92951583862305
21-08-2020,42.97999954223633,44.08000183105469,4166400,44.119998931884766,43.38999938964844,40.27055740356445
24-08-2020,43.36000061035156,43.709999084472656,6078900,44.970001220703125,44.33000183105469,41.14298629760742
25-08-2020,44.04999923706055,44.97999954223633,3263300,45.130001068115234,44.380001068115234,41.18938827514648
26-08-2020,43.0099983215332,44.2400016784668,3054000,44.36000061035156,43.2599983215332,40.14990615844727
27-08-2020,43.20000076293945,43.61000061035156,5453800,45.09999847412109,44.95000076293945,41.71841049194336
28-08-2020,44.7599983215332,45.310001373291016,3365900,46.25,46.209999084472656,42.887821197509766
31-08-2020,45.0099983215332,46.220001220703125,3017300,46.25,45.34000015258789,42.08036804199219
01-09-2020,44.38999938964844,44.720001220703125,2906400,45.380001068115234,45.209999084472656,41.95971298217773
02-09-2020,43.52999877929688,44.720001220703125,5249900,45.13999938964844,43.70000076293945,40.55826950073242
03-09-2020,42.77999877929688,43.709999084472656,5188200,44.59999847412109,43.130001068115234,40.029258728027344
04-09-2020,42.54999923706055,43.56999969482422,4418300,43.91999816894531,43.13999938964844,40.03853225708008
08-09-2020,40.02999877929688,42.16999816894531,5747100,42.36000061035156,40.83000183105469,37.89460754394531
09-09-2020,40.95000076293945,41.36000061035156,3565000,42.34000015258789,41.86000061035156,38.850563049316406
10-09-2020,37.9900016784668,41.81999969482422,7457200,41.81999969482422,38.0,35.268062591552734
11-09-2020,37.900001525878906,38.47999954223633,5658300,39.18999862670898,39.04999923706055,36.24257659912109
14-09-2020,38.540000915527344,39.310001373291016,5543300,39.7599983215332,39.16999816894531,36.353946685791016
15-09-2020,38.43000030517578,39.5,4791200,39.77999877929688,38.59000015258789,35.815643310546875
16-09-2020,38.650001525878906,38.900001525878906,6553700,41.58000183105469,40.86000061035156,37.92244720458984
17-09-2020,39.560001373291016,39.86000061035156,3900500,41.20000076293945,41.18999862670898,38.22872161865234
18-09-2020,40.310001373291016,40.79999923706055,5865800,41.54999923706055,40.709999084472656,37.78323745727539
21-09-2020,38.290000915527344,39.5,4719900,40.11000061035156,38.810001373291016,36.01982879638672
22-09-2020,37.97999954223633,39.06999969482422,3767800,39.70000076293945,38.45000076293945,35.68571472167969
23-09-2020,36.34000015258789,38.709999084472656,4041400,39.08000183105469,36.380001068115234,33.764530181884766
24-09-2020,35.33000183105469,36.18000030517578,4431700,37.43999862670898,36.650001525878906,34.0151252746582
25-09-2020,36.060001373291016,36.25,3365800,37.79999923706055,37.45000076293945,34.757606506347656
28-09-2020,37.2599983215332,38.369998931884766,4169600,38.369998931884766,37.43999862670898,34.74832534790039
29-09-2020,34.900001525878906,37.2400016784668,7017000,37.470001220703125,36.18999862670898,33.58818817138672
30-09-2020,35.79999923706055,36.43999862670898,6033700,36.7599983215332,35.939998626708984,33.35616683959961
01-10-2020,34.619998931884766,35.33000183105469,5085300,35.81999969482422,34.86000061035156,32.35380935668945
02-10-2020,33.630001068115234,33.790000915527344,5428500,35.220001220703125,34.810001373291016,32.307403564453125
05-10-2020,35.06999969482422,35.459999084472656,4113400,36.4900016784668,36.459999084472656,33.83877944946289
06-10-2020,35.72999954223633,37.18000030517578,6025700,37.720001220703125,35.9900016784668,33.402565002441406
07-10-2020,35.709999084472656,36.0,4513200,36.869998931884766,36.709999084472656,34.070804595947266
08-10-2020,36.66999816894531,37.11000061035156,3714900,37.869998931884766,37.66999816894531,34.96178436279297
09-10-2020,37.16999816894531,37.97999954223633,3398000,38.16999816894531,37.560001373291016,34.85969924926758
12-10-2020,36.65999984741211,37.5099983215332,3806500,38.40999984741211,38.209999084472656,35.46296691894531
13-10-2020,38.4900016784668,38.63999938964844,7808700,40.150001525878906,38.63999938964844,35.862056732177734
14-10-2020,37.59999847412109,38.7599983215332,6919300,39.209999084472656,37.619998931884766,34.915382385253906
15-10-2020,36.15999984741211,36.54999923706055,4791600,38.2400016784668,38.08000183105469,35.69815826416016
16-10-2020,36.650001525878906,37.880001068115234,10261100,39.84999847412109,37.41999816894531,35.079437255859375
19-10-2020,36.15999984741211,37.52999877929688,8378000,37.59000015258789,36.18999862670898,33.926368713378906
20-10-2020,35.25,36.47999954223633,6117800,36.59999847412109,36.27999877929688,34.0107421875
21-10-2020,35.040000915527344,36.290000915527344,6314500,36.34999847412109,35.119998931884766,32.92329788208008
22-10-2020,34.95000076293945,35.08000183105469,7240100,37.130001068115234,36.93000030517578,34.620086669921875
23-10-2020,36.70000076293945,37.2599983215332,4466200,37.709999084472656,37.5099983215332,35.1638069152832
26-10-2020,34.65999984741211,36.77000045776367,5054900,36.77000045776367,34.93000030517578,32.74518203735352
27-10-2020,34.2599983215332,34.7400016784668,7082400,35.189998626708984,34.58000183105469,32.417076110839844
28-10-2020,31.96999931335449,33.650001525878906,8754600,33.689998626708984,32.5099983215332,30.476547241210938
29-10-2020,31.21999931335449,31.799999237060547,6106000,34.040000915527344,33.970001220703125,31.845230102539062
30-10-2020,33.02000045776367,33.63999938964844,4707300,34.2599983215332,34.2400016784668,32.09834671020508
02-11-2020,33.400001525878906,34.88999938964844,4858500,35.77000045776367,35.150001525878906,32.95142364501953
03-11-2020,34.529998779296875,35.91999816894531,3683700,35.970001220703125,35.02000045776367,32.82955551147461
04-11-2020,34.220001220703125,35.130001068115234,6095200,36.88999938964844,36.040000915527344,33.7857551574707
05-11-2020,35.310001373291016,35.310001373291016,5564100,36.470001220703125,35.599998474121094,33.37327575683594
06-11-2020,34.040000915527344,36.29999923706055,8823500,37.130001068115234,34.58000183105469,32.417076110839844
09-11-2020,39.09999847412109,39.45000076293945,10837900,41.77999877929688,40.310001373291016,37.788673400878906
10-11-2020,39.56999969482422,41.0,6593300,42.25,42.18999862670898,39.55107498168945
11-11-2020,41.27000045776367,42.75,7126700,43.040000915527344,41.90999984741211,39.2885971069336
12-11-2020,40.119998931884766,40.810001373291016,4738900,41.88999938964844,40.4900016784668,37.95741653442383
13-11-2020,40.959999084472656,40.97999954223633,4854100,42.93000030517578,42.66999816894531,40.00105667114258
16-11-2020,43.650001525878906,44.290000915527344,6993000,45.47999954223633,45.34999847412109,42.513427734375
17-11-2020,43.95000076293945,44.84999847412109,5393500,45.79999923706055,45.66999816894531,42.81341171264648
18-11-2020,44.84999847412109,46.20000076293945,5104300,47.40999984741211,44.93000030517578,42.11969757080078
19-11-2020,44.11000061035156,44.45000076293945,4186700,45.61000061035156,45.459999084472656,42.61655044555664
20-11-2020,44.56999969482422,45.09999847412109,3497200,46.02000045776367,45.38999938964844,42.55092239379883
23-11-2020,46.04999923706055,46.130001068115234,6339600,50.459999084472656,50.380001068115234,47.22880935668945
24-11-2020,51.83000183105469,52.13999938964844,10364300,54.70000076293945,54.41999816894531,51.01611328125
25-11-2020,53.0,53.880001068115234,7565600,54.77999877929688,53.0,49.68493270874024
27-11-2020,51.130001068115234,52.09000015258789,2187000,53.380001068115234,51.43000030517578,48.213134765625
30-11-2020,46.720001220703125,50.7599983215332,9701300,50.810001373291016,46.880001068115234,43.94772720336914
01-12-2020,46.45000076293945,48.470001220703125,4337800,48.81999969482422,46.52999877929688,43.61962127685547
02-12-2020,46.310001373291016,46.58000183105469,9378500,49.06999969482422,47.81999969482422,44.82893753051758
03-12-2020,47.720001220703125,48.75,16458000,48.84999847412109,48.16999816894531,45.15703582763672
04-12-2020,49.2599983215332,49.33000183105469,7008400,53.0099983215332,53.0,49.68493270874024
07-12-2020,51.09999847412109,52.27999877929688,5689800,52.66999816894531,51.56999969482422,48.34437561035156
08-12-2020,51.02000045776367,51.720001220703125,4818500,52.22999954223633,52.150001525878906,48.88809585571289
09-12-2020,52.02000045776367,52.83000183105469,6915600,54.5099983215332,52.959999084472656,49.64743423461914
10-12-2020,52.959999084472656,53.0,5231100,55.95000076293945,54.68000030517578,51.259857177734375
11-12-2020,52.84999847412109,54.18999862670898,3929300,54.34000015258789,53.59999847412109,50.24740219116211
14-12-2020,51.880001068115234,54.43999862670898,3937200,54.68000030517578,52.08000183105469,48.82248306274414
15-12-2020,51.650001525878906,52.52000045776367,4081000,53.40999984741211,53.15999984741211,49.83492660522461
16-12-2020,52.41999816894531,53.27000045776367,3417500,53.970001220703125,52.70000076293945,49.40370178222656
17-12-2020,51.5,53.22999954223633,4054000,53.40999984741211,52.150001525878906,48.88809585571289
18-12-2020,51.02999877929688,52.0099983215332,9911100,52.36000061035156,51.77000045776367,48.53186798095703
21-12-2020,48.59000015258789,49.310001373291016,5317800,51.2400016784668,50.08000183105469,46.94757843017578
22-12-2020,48.52000045776367,50.0,5033400,50.0,48.84999847412109,45.79450607299805
23-12-2020,49.27999877929688,49.45000076293945,3660400,50.93000030517578,50.08000183105469,46.94757843017578
24-12-2020,49.040000915527344,50.150001525878906,2128500,50.20000076293945,49.59999847412109,46.497596740722656
28-12-2020,48.790000915527344,49.79999923706055,2594800,50.34000015258789,48.93999862670898,45.87887954711914
29-12-2020,48.20000076293945,49.540000915527344,2027800,49.83000183105469,48.66999816894531,45.625762939453125
30-12-2020,48.34000015258789,48.58000183105469,2324000,50.650001525878906,50.560001373291016,47.39754867553711
31-12-2020,49.52999877929688,50.29999923706055,2407800,50.45000076293945,49.869998931884766,46.75071334838867
04-01-2021,48.59999847412109,50.7599983215332,4406500,50.95000076293945,49.86000061035156,46.741336822509766
05-01-2021,50.369998931884766,50.7400016784668,5624100,55.31999969482422,53.91999816894531,50.54738235473633
06-01-2021,53.72999954223633,54.459999084472656,6350800,56.15999984741211,55.060001373291016,51.61608123779297
07-01-2021,55.25,55.68999862670898,5715300,59.2599983215332,58.619998931884766,54.95341110229492
08-01-2021,57.9900016784668,59.5,5804100,59.68999862670898,58.869998931884766,55.187774658203125
11-01-2021,56.79999923706055,57.43000030517578,5665600,60.02999877929688,59.61000061035156,55.881492614746094
12-01-2021,60.310001373291016,60.70000076293945,5489300,63.02999877929688,62.43999862670898,58.53447723388672
13-01-2021,59.79999923706055,62.130001068115234,3792200,62.34000015258789,60.470001220703125,56.68769836425781
14-01-2021,60.119998931884766,60.290000915527344,3732300,62.970001220703125,62.2400016784668,58.711082458496094
15-01-2021,58.54999923706055,60.93999862670898,4933100,61.040000915527344,59.18999862670898,55.83401107788086
19-01-2021,59.880001068115234,60.2599983215332,2966700,61.22999954223633,60.47999954223633,57.05086517333984
20-01-2021,59.36000061035156,61.04999923706055,2280700,61.25,60.20000076293945,56.786739349365234
21-01-2021,54.970001220703125,60.11000061035156,8526200,60.459999084472656,55.02999877929688,51.90987777709961
22-01-2021,52.93999862670898,53.25,5481100,54.97999954223633,54.86000061035156,51.74951171875
25-01-2021,52.81999969482422,54.119998931884766,4902800,55.25,55.20000076293945,52.07023620605469
26-01-2021,53.470001220703125,55.84000015258789,3702400,56.77999877929688,53.4900016784668,50.45719528198242
27-01-2021,51.88999938964844,52.720001220703125,7499600,55.4900016784668,55.0099983215332,51.89101409912109
28-01-2021,53.56999969482422,55.52000045776367,7417500,55.900001525878906,53.720001220703125,50.67414855957031
29-01-2021,50.75,53.20000076293945,6691300,53.869998931884766,50.959999084472656,48.07063674926758
01-02-2021,50.08000183105469,51.31999969482422,4710300,52.0,51.33000183105469,48.41965866088867
02-02-2021,50.93999862670898,52.900001525878906,6255100,53.0099983215332,51.2599983215332,48.3536262512207
03-02-2021,51.5,51.83000183105469,5047600,56.0,55.880001068115234,52.7116813659668
04-02-2021,54.72999954223633,56.310001373291016,5451900,57.52999877929688,57.470001220703125,54.21153259277344
05-02-2021,56.43000030517578,58.040000915527344,4029000,58.09999847412109,56.61000061035156,53.40029525756836
08-02-2021,57.31999969482422,57.5099983215332,4079300,59.84999847412109,59.40999984741211,56.04153823852539
09-02-2021,57.880001068115234,58.75,3039600,58.93000030517578,58.220001220703125,54.91900634765625
10-02-2021,58.45000076293945,58.5,4959100,60.91999816894531,60.209999084472656,56.796180725097656
11-02-2021,58.15999984741211,60.150001525878906,2973000,60.27000045776367,59.63999938964844,56.25849533081055
12-02-2021,59.02999877929688,59.209999084472656,3317600,61.5,61.02000045776367,57.56024932861328
16-02-2021,62.13999938964844,63.04999923706055,4921900,63.84999847412109,63.09999847412109,59.52231597900391
17-02-2021,61.84000015258789,63.34000015258789,2956500,63.72999954223633,63.540000915527344,59.93737030029297
18-02-2021,60.459999084472656,63.0,3691400,63.13999938964844,60.56999969482422,57.1357650756836
19-02-2021,60.790000915527344,60.790000915527344,3291100,62.560001373291016,62.5099983215332,58.96576690673828
22-02-2021,62.77999877929688,63.0099983215332,4639400,67.27999877929688,66.0999984741211,62.35222625732422
23-02-2021,63.619998931884766,67.30000305175781,4236500,68.16000366210938,67.8499984741211,64.00299835205078
24-02-2021,67.41000366210938,68.1500015258789,6106600,72.86000061035156,72.37000274658203,68.26673126220703
25-02-2021,69.83999633789062,72.4000015258789,5983200,72.83999633789062,70.58999633789062,66.58763885498047
26-02-2021,63.41999816894531,69.25,9258000,69.3499984741211,64.55999755859375,60.8995361328125
01-03-2021,64.12999725341797,65.45999908447266,4853300,65.9800033569336,64.9800033569336,61.29572296142578
02-03-2021,63.95000076293945,64.69000244140625,3593100,65.75,64.47000122070312,60.81464767456055
03-03-2021,64.80000305175781,64.80000305175781,4772200,68.4800033569336,66.98999786376953,63.19175720214844
04-03-2021,67.2300033569336,67.44999694824219,7351600,73.87000274658203,71.43000030517578,67.38001251220703
05-03-2021,71.2699966430664,73.91999816894531,6638200,74.86000061035156,74.58000183105469,70.3514175415039
08-03-2021,72.7699966430664,75.5,6850200,75.80000305175781,74.58999633789062,70.36084747314453
09-03-2021,70.5999984741211,72.98999786376953,5738400,77.1500015258789,73.61000061035156,69.4364242553711
10-03-2021,72.62999725341797,74.0,3712100,75.6500015258789,75.11000061035156,70.85137176513672
11-03-2021,74.66000366210938,75.19999694824219,4167900,76.58999633789062,75.30999755859375,71.04003143310547
12-03-2021,74.2300033569336,75.69999694824219,2958300,75.88999938964844,75.0,70.74760437011719
15-03-2021,72.16999816894531,74.16999816894531,2602400,74.58999633789062,74.36000061035156,70.1438980102539
16-03-2021,70.33000183105469,72.61000061035156,5399900,72.94999694824219,70.6500015258789,66.64424133300781
17-03-2021,69.87999725341797,71.37999725341797,3816900,73.23999786376953,73.19000244140625,69.04022979736328
18-03-2021,68.69999694824219,72.47000122070312,4406400,73.16000366210938,68.9000015258789,64.99346923828125
19-03-2021,68.27999877929688,69.22000122070312,8384500,71.02999877929688,70.08000183105469,66.10655975341797
22-03-2021,67.61000061035156,68.61000061035156,2942000,69.12000274658203,68.2300033569336,64.36145782470703
23-03-2021,66.27999877929688,66.9000015258789,7079700,71.51000213623047,69.6500015258789,65.70094299316406
24-03-2021,71.0,71.01000213623047,5032500,73.47000122070312,72.54000091552734,68.42708587646484
25-03-2021,69.80000305175781,71.05000305175781,4176000,73.1500015258789,73.04000091552734,68.89872741699219
26-03-2021,73.58000183105469,74.44000244140625,4425300,75.0,74.87999725341797,70.63440704345703
29-03-2021,72.48999786376953,74.33999633789062,3264000,74.88999938964844,73.63999938964844,69.46471405029297
30-03-2021,71.38999938964844,72.55000305175781,2614300,73.9000015258789,73.26000213623047,69.10625457763672
31-03-2021,72.19000244140625,73.12999725341797,3458300,73.79000091552734,72.52999877929688,68.41764831542969
01-04-2021,72.16000366210938,72.83000183105469,5864000,75.55000305175781,75.33999633789062,71.06832122802734
05-04-2021,70.83000183105469,75.04000091552734,4173300,75.1500015258789,71.79000091552734,67.71961212158203
06-04-2021,72.1500015258789,72.47000122070312,3390600,74.62999725341797,72.30000305175781,68.20069122314453
07-04-2021,72.30000305175781,72.47000122070312,3552300,73.55999755859375,73.30000305175781,69.14400482177734
08-04-2021,70.87999725341797,72.80000305175781,4445200,72.8499984741211,72.19000244140625,68.09693145751953
09-04-2021,71.12999725341797,72.7699966430664,4065700,73.51000213623047,71.7699966430664,67.70074462890625
12-04-2021,70.0999984741211,72.38999938964844,3403700,73.37000274658203,70.0999984741211,66.12542724609375
13-04-2021,69.30999755859375,70.11000061035156,2229500,71.0999984741211,70.4000015258789,66.4084243774414
14-04-2021,71.06999969482422,71.26000213623047,4710200,74.87999725341797,74.12000274658203,69.9175033569336
15-04-2021,72.26000213623047,74.19000244140625,3520900,74.33000183105469,72.83000183105469,69.08558654785156
16-04-2021,70.44000244140625,72.83000183105469,3574700,73.0999984741211,70.51000213623047,66.8848648071289
19-04-2021,70.01000213623047,70.69999694824219,2914900,72.0999984741211,71.29000091552734,67.624755859375
20-04-2021,67.30000305175781,70.2300033569336,3980900,70.5999984741211,68.56999969482422,65.04460906982422
21-04-2021,67.29000091552734,67.54000091552734,3513700,69.68000030517578,68.95999908447266,65.41455841064453
22-04-2021,67.12999725341797,69.13999938964844,2775800,69.19000244140625,68.3499984741211,64.83590698242188
23-04-2021,68.27999877929688,68.63999938964844,2181700,69.88999938964844,69.05999755859375,65.50940704345703
26-04-2021,68.79000091552734,68.9000015258789,2601700,70.38999938964844,69.83000183105469,66.23983001708984
27-04-2021,69.75,70.04000091552734,2808800,72.02999877929688,71.68000030517578,67.99472045898438
28-04-2021,72.22000122070312,72.22000122070312,4677600,75.44000244140625,74.9800033569336,71.12506103515625
29-04-2021,74.93000030517578,76.4000015258789,2863400,77.05000305175781,75.93000030517578,72.02621459960938
30-04-2021,73.5199966430664,74.43000030517578,2467600,76.2300033569336,73.63999938964844,69.85394287109375
03-05-2021,74.1500015258789,74.62000274658203,3324600,76.0199966430664,75.97000122070312,72.06415557861328
04-05-2021,74.72000122070312,76.1500015258789,4649200,76.69000244140625,75.01000213623047,71.15351104736328
05-05-2021,75.5,76.48999786376953,7966700,78.16000366210938,76.70999908447266,72.76610565185547
06-05-2021,74.66999816894531,76.7300033569336,4740500,77.20999908447266,76.9800033569336,73.02222442626953
07-05-2021,76.80000305175781,77.33000183105469,7297400,83.27999877929688,83.0999984741211,78.82757568359375
10-05-2021,83.68000030517578,84.72000122070312,5567800,86.5999984741211,84.55000305175781,80.2030258178711
11-05-2021,80.4800033569336,82.76000213623047,4977900,82.9800033569336,82.13999938964844,77.91693115234375
12-05-2021,81.06999969482422,83.23999786376953,4693900,84.19999694824219,81.36000061035156,77.17704010009766
13-05-2021,78.08000183105469,80.70999908447266,3427200,81.37000274658203,79.58000183105469,75.4885482788086
14-05-2021,80.54000091552734,80.55000305175781,4042600,83.0199966430664,82.5999984741211,78.35327911376953
17-05-2021,81.83999633789062,81.83999633789062,3833000,85.12999725341797,85.0999984741211,80.72474670410156
18-05-2021,82.81999969482422,85.51000213623047,3345800,85.80999755859375,82.97000122070312,78.70426177978516
19-05-2021,78.83000183105469,80.55999755859375,4041300,82.05000305175781,80.54000091552734,76.3991928100586
20-05-2021,78.70999908447266,80.5999984741211,3306500,81.05999755859375,80.5199966430664,76.3802261352539
21-05-2021,79.98999786376953,81.45999908447266,2782900,82.2300033569336,80.06999969482422,75.95335388183594
24-05-2021,78.83999633789062,80.88999938964844,4270800,80.94000244140625,80.13999938964844,76.0197525024414
25-05-2021,78.56999969482422,80.25,4786200,80.87000274658203,78.68000030517578,74.63481903076172
26-05-2021,77.94000244140625,78.93000030517578,3877200,79.91000366210938,79.5999984741211,75.50753021240234
27-05-2021,79.44000244140625,80.54000091552734,6086000,81.37000274658203,80.33000183105469,76.19998931884766
28-05-2021,79.9000015258789,80.44999694824219,2062200,80.98999786376953,80.33999633789062,76.20946502685547
01-06-2021,82.55999755859375,82.58000183105469,4135200,85.2300033569336,84.58999633789062,80.240966796875
02-06-2021,83.25,84.83000183105469,3547500,86.02999877929688,85.2699966430664,80.88600158691406
03-06-2021,84.70999908447266,85.41999816894531,3658200,87.41000366210938,86.80999755859375,82.34683227539062
04-06-2021,85.6500015258789,87.2699966430664,3128600,87.9000015258789,87.45999908447266,82.96340942382812
07-06-2021,86.80999755859375,87.18000030517578,2670200,87.98999786376953,87.02999877929688,82.55552673339844
08-06-2021,84.33999633789062,85.16999816894531,3018800,87.69999694824219,87.38999938964844,82.89701080322266
09-06-2021,85.76000213623047,87.5,3154800,87.94000244140625,85.80999755859375,81.39824676513672
10-06-2021,84.83999633789062,87.37000274658203,3122100,87.5199966430664,86.16999816894531,81.73973083496094
11-06-2021,85.19999694824219,86.94000244140625,3977200,87.69999694824219,85.44000244140625,81.0472640991211
14-06-2021,84.06999969482422,86.04000091552734,3574100,87.33999633789062,84.86000061035156,80.4970932006836
15-06-2021,84.4800033569336,85.02999877929688,4392200,86.30000305175781,85.5999984741211,81.19903564453125
16-06-2021,83.66000366210938,85.4800033569336,3806800,86.05000305175781,84.70999908447266,80.35479736328125
17-06-2021,79.72000122070312,84.66999816894531,4582200,85.47000122070312,81.43000030517578,77.24343872070312
18-06-2021,78.80000305175781,79.80999755859375,9421200,81.30000305175781,79.30999755859375,75.23242950439453
21-06-2021,80.5999984741211,80.75,4966500,85.08000183105469,84.98999786376953,80.62039947509766
22-06-2021,83.4000015258789,84.94000244140625,3187400,85.55000305175781,84.94999694824219,80.58245849609375
23-06-2021,85.61000061035156,85.87999725341797,2601300,87.7699966430664,85.69999694824219,81.29389953613281
24-06-2021,84.37000274658203,85.20999908447266,2754800,86.12999725341797,86.08999633789062,81.66384887695312
25-06-2021,85.56999969482422,86.69999694824219,4754600,87.69999694824219,87.6500015258789,83.14364624023438
28-06-2021,82.48999786376953,87.01000213623047,4471800,87.01000213623047,82.97000122070312,78.70426177978516
29-06-2021,81.97000122070312,83.4800033569336,2944600,84.48999786376953,82.30999755859375,78.07819366455078
30-06-2021,82.66999816894531,83.13999938964844,5392400,84.41000366210938,83.44000244140625,79.15009307861328
01-07-2021,84.5999984741211,85.88999938964844,4409600,86.37999725341797,85.98999786376953,81.5689926147461
02-07-2021,84.38999938964844,85.5999984741211,2884000,86.30999755859375,85.7699966430664,81.36029815673828
06-07-2021,83.12000274658203,85.7699966430664,3776900,86.0,83.72000122070312,79.41570281982422
07-07-2021,80.63999938964844,83.41999816894531,4430300,84.20999908447266,81.08999633789062,76.92090606689453
08-07-2021,79.55999755859375,80.11000061035156,6314800,81.62999725341797,79.88999938964844,75.78260803222656
09-07-2021,79.80000305175781,81.38999938964844,6362100,82.7699966430664,82.58999633789062,78.34378814697266
12-07-2021,80.91000366210938,81.4000015258789,3387600,83.87000274658203,83.30000305175781,79.01729583740234
13-07-2021,82.12999725341797,82.70999908447266,3512800,83.55999755859375,82.7300033569336,78.47660064697266
14-07-2021,79.22000122070312,83.56999969482422,3745600,84.33000183105469,79.66000366210938,75.56444549560547
15-07-2021,75.75,76.73999786376953,6226800,78.63999938964844,76.19000244140625,73.57795715332031
16-07-2021,73.61000061035156,77.12000274658203,3652400,77.33999633789062,73.91000366210938,71.3761215209961
19-07-2021,69.41999816894531,71.5,6348300,72.44000244140625,70.33999633789062,67.92851257324219
20-07-2021,69.30000305175781,70.0,7228100,72.45999908447266,71.5,69.04873657226562
21-07-2021,72.41999816894531,73.19999694824219,8755800,74.86000061035156,74.19000244140625,71.64653015136719
22-07-2021,72.93000030517578,74.3499984741211,3059200,74.54000091552734,73.69999694824219,71.1733169555664
23-07-2021,71.58000183105469,73.43000030517578,3889300,73.66999816894531,72.51000213623047,70.02412414550781
26-07-2021,72.55999755859375,72.77999877929688,4237500,74.5999984741211,74.16999816894531,71.62721252441406
27-07-2021,71.62999725341797,73.4000015258789,4977300,73.4000015258789,72.7300033569336,70.23657989501953
28-07-2021,71.69999694824219,73.27999877929688,3546100,73.80000305175781,73.30000305175781,70.78704071044922
29-07-2021,72.80000305175781,74.16000366210938,4442900,74.25,73.70999908447266,71.18297576904297
30-07-2021,72.08000183105469,73.16999816894531,4708500,73.3499984741211,72.86000061035156,70.36212158203125
02-08-2021,71.37999725341797,72.83000183105469,5653200,74.38999938964844,71.62000274658203,69.16463470458984
03-08-2021,70.87999725341797,71.37999725341797,4718300,74.29000091552734,73.68000030517578,71.15400695800781
04-08-2021,70.5,71.83000183105469,4964400,73.04000091552734,70.73999786376953,68.31478881835938
05-08-2021,69.76000213623047,71.12999725341797,6534100,71.95999908447266,70.73999786376953,68.31478881835938
06-08-2021,70.61000061035156,71.83000183105469,4560900,72.16999816894531,70.93000030517578,68.49828338623047
09-08-2021,68.86000061035156,69.5999984741211,3909300,70.61000061035156,69.37999725341797,67.00142669677734
10-08-2021,67.9800033569336,69.63999938964844,16155800,70.31999969482422,68.7300033569336,66.37371826171875
11-08-2021,68.0199966430664,68.86000061035156,7844900,69.87999725341797,69.45999908447266,67.07868194580078
12-08-2021,68.69999694824219,69.54000091552734,3905000,70.0,69.79000091552734,67.3973617553711
13-08-2021,67.95999908447266,69.83000183105469,2508700,69.8499984741211,68.0,65.66873168945312
16-08-2021,65.83000183105469,66.9800033569336,3657800,67.4000015258789,65.91999816894531,63.660037994384766
17-08-2021,65.3499984741211,65.5,4609300,66.83999633789062,65.97000122070312,63.70832824707031
18-08-2021,65.2300033569336,65.94000244140625,5504100,67.55000305175781,65.36000061035156,63.11924362182617
19-08-2021,62.810001373291016,64.33000183105469,5467600,65.44000244140625,64.26000213623047,62.05695724487305
20-08-2021,63.25,63.459999084472656,3554000,65.0,64.47000122070312,62.259761810302734
23-08-2021,66.33999633789062,66.87000274658203,4195000,68.04000091552734,67.63999938964844,65.32108306884766
24-08-2021,67.47000122070312,68.16000366210938,3638900,68.81999969482422,68.44999694824219,66.10330963134766
25-08-2021,67.7699966430664,68.55000305175781,2362900,69.29000091552734,68.7300033569336,66.37371826171875
26-08-2021,67.0199966430664,68.0199966430664,3247400,68.3499984741211,67.43000030517578,65.11827087402344
27-08-2021,68.4000015258789,68.4000015258789,3437400,70.41000366210938,69.62999725341797,67.24285125732422
30-08-2021,67.36000061035156,68.8499984741211,4614000,69.36000061035156,67.38999938964844,65.07965087890625
31-08-2021,66.66999816894531,67.36000061035156,4744100,68.20999908447266,67.5199966430664,65.20518493652344
01-09-2021,66.05000305175781,67.72000122070312,3737900,68.0199966430664,66.36000061035156,64.0849609375
02-09-2021,66.93000030517578,67.0,3541100,69.5199966430664,68.36000061035156,66.01638793945312
03-09-2021,67.20999908447266,68.01000213623047,2450200,68.55000305175781,67.98999786376953,65.65907287597656
07-09-2021,66.94999694824219,67.31999969482422,2274100,68.31999969482422,67.66999816894531,65.35005187988281
08-09-2021,66.8499984741211,68.27999877929688,2927300,68.55999755859375,67.18000030517578,64.87684631347656
09-09-2021,66.08000183105469,66.66999816894531,3286600,68.19999694824219,67.3499984741211,65.041015625
10-09-2021,66.97000122070312,68.48999786376953,2768900,68.91999816894531,67.13999938964844,64.83821868896484
13-09-2021,69.08000183105469,69.13999938964844,5099500,71.37999725341797,70.08999633789062,67.68708038330078
14-09-2021,69.16999816894531,70.7300033569336,4747900,70.94999694824219,69.5199966430664,67.13662719726562
15-09-2021,71.0199966430664,71.18000030517578,8412500,75.52999877929688,75.30999755859375,72.7281265258789
16-09-2021,73.4000015258789,74.80999755859375,4326800,75.44999694824219,73.97000122070312,71.43406677246094
17-09-2021,73.48999786376953,74.04000091552734,6397200,74.93000030517578,74.25,71.7044677734375
20-09-2021,70.41000366210938,71.87999725341797,5227600,72.91000366210938,71.52999877929688,69.07771301269531
21-09-2021,71.37999725341797,72.5,3871000,73.16000366210938,72.20999908447266,69.7343978881836
22-09-2021,72.76000213623047,72.76000213623047,4775400,75.33000183105469,74.5999984741211,72.0424575805664
23-09-2021,74.4800033569336,74.91999816894531,3893800,77.05000305175781,76.87000274658203,74.2346420288086
24-09-2021,76.0199966430664,76.29000091552734,5126200,78.87000274658203,78.0999984741211,75.42247009277344
27-09-2021,80.29000091552734,80.44999694824219,5002000,82.41000366210938,81.80999755859375,79.00527954101562
28-09-2021,81.33000183105469,82.95999908447266,5830500,83.4800033569336,81.7300033569336,78.92803192138672
29-09-2021,80.4800033569336,81.70999908447266,4809400,83.5999984741211,82.56999969482422,79.73922729492188
30-09-2021,79.91000366210938,82.33999633789062,6709300,82.38999938964844,80.2699966430664,77.51807403564453
01-10-2021,81.01000213623047,81.0999984741211,5179400,84.13999938964844,83.91000366210938,81.03329467773438
04-10-2021,84.62999725341797,85.0,6252600,87.79000091552734,86.4000015258789,83.43792724609375
05-10-2021,86.75,87.7699966430664,6931000,89.4800033569336,87.0999984741211,84.11392974853516
06-10-2021,84.06999969482422,85.80000305175781,5049100,87.05999755859375,86.56999969482422,83.60209655761719
07-10-2021,85.06999969482422,86.45999908447266,4286200,86.80000305175781,85.79000091552734,82.84883880615234
08-10-2021,86.80000305175781,86.80000305175781,4847800,90.91000366210938,90.52999877929688,87.42633056640625
11-10-2021,90.04000091552734,92.3000030517578,4611400,93.06999969482422,90.16000366210938,87.06902313232422
12-10-2021,89.37999725341797,89.81999969482422,4565100,91.94000244140624,90.12000274658205,87.03038787841797
13-10-2021,88.02999877929688,88.98999786376953,4415900,91.58999633789062,90.41000366210938,87.3104476928711
14-10-2021,88.54000091552734,90.54000091552734,3583100,91.3000030517578,90.56999969482422,87.86634063720703
15-10-2021,89.54000091552734,91.83000183105467,3179500,91.88999938964844,89.62000274658203,86.9447021484375
18-10-2021,88.58999633789062,90.36000061035156,4664400,91.94000244140624,89.30999755859375,86.64395904541016
19-10-2021,88.0999984741211,89.41000366210938,2821100,90.8499984741211,90.16000366210938,87.46858215332031
20-10-2021,89.04000091552734,89.51000213623047,3799100,93.43000030517578,93.0999984741211,90.32081604003906
21-10-2021,89.88999938964844,91.97000122070312,3464400,92.7300033569336,90.9000015258789,88.18649291992188
22-10-2021,90.6500015258789,91.58000183105467,2202600,92.4000015258789,92.0,89.25365447998047
25-10-2021,92.83999633789062,93.5,3849100,94.73999786376952,94.04000091552734,91.23275756835938
26-10-2021,93.83999633789062,94.54000091552734,2617600,95.63999938964844,95.0,92.16410064697266
27-10-2021,92.33999633789062,93.5199966430664,3992200,94.6500015258789,93.04000091552734,90.26261138916016
28-10-2021,92.41999816894533,92.4499969482422,2284600,94.0199966430664,93.80999755859376,91.0096206665039
29-10-2021,91.83999633789062,93.5199966430664,2293900,94.5999984741211,92.45999908447266,89.69992065429688
01-11-2021,92.51000213623048,93.63999938964844,3190600,94.20999908447266,93.45999908447266,90.6700668334961
02-11-2021,92.20999908447266,92.7300033569336,2327300,94.19000244140624,92.81999969482422,90.04917907714844
03-11-2021,90.1500015258789,91.56999969482422,4917500,93.11000061035156,90.9499969482422,88.23500061035156
04-11-2021,90.12999725341795,92.58000183105467,5006500,93.62999725341795,90.9000015258789,88.18649291992188
05-11-2021,92.87999725341795,94.97000122070312,7201300,96.19000244140624,95.12000274658205,92.280517578125
08-11-2021,95.80999755859376,96.22000122070312,3487300,98.1999969482422,96.98999786376952,94.09468841552734
09-11-2021,94.80999755859376,96.87000274658205,2439400,97.47000122070312,97.11000061035156,94.21111297607422
10-11-2021,93.02999877929688,96.2300033569336,4271500,96.41999816894533,94.29000091552734,91.4752960205078
11-11-2021,94.7300033569336,94.7300033569336,3068600,96.31999969482422,94.91999816894533,92.08648681640624
12-11-2021,94.29000091552734,94.48999786376952,3539500,96.02999877929688,94.83999633789062,92.00887298583984
15-11-2021,92.31999969482422,94.4499969482422,6183400,94.70999908447266,93.1999969482422,90.41783142089844
16-11-2021,91.83999633789062,93.61000061035156,4718800,93.8000030517578,91.9000015258789,89.15664672851562
17-11-2021,89.20999908447266,90.70999908447266,6058000,92.4800033569336,90.08000183105467,87.39097595214844
18-11-2021,88.56999969482422,89.91999816894531,4543000,91.0,89.62000274658203,86.9447021484375
19-11-2021,85.31999969482422,87.94000244140625,5732400,88.0,85.68000030517578,83.122314453125
22-11-2021,85.5999984741211,85.5999984741211,6530400,88.2699966430664,86.70999908447266,84.12156677246094
23-11-2021,88.2300033569336,88.55000305175781,4901700,91.8499984741211,91.76000213623048,89.02082061767578
24-11-2021,90.91999816894533,90.91999816894533,3049700,93.43000030517578,93.0500030517578,90.2723159790039
26-11-2021,84.69999694824219,87.83000183105469,4738200,88.19999694824219,87.41999816894531,84.81037902832031
29-11-2021,88.18000030517578,90.44000244140624,4061700,91.5199966430664,88.38999938964844,85.75141906738281
30-11-2021,86.0,87.02999877929688,7858200,89.0999984741211,87.0,84.40291595458984
01-12-2021,85.2300033569336,89.43000030517578,5594600,89.94000244140625,85.3499984741211,82.80216979980469
02-12-2021,83.25,84.75,5674200,87.05000305175781,86.55999755859375,83.97604370117188
03-12-2021,85.1500015258789,88.63999938964844,5592900,89.0999984741211,85.98999786376953,83.42305755615234
06-12-2021,86.80999755859375,88.0,3091200,89.12000274658203,87.56999969482422,84.95589447021484
07-12-2021,88.93000030517578,89.0,4748700,91.91999816894533,90.55999755859376,87.85663604736328
08-12-2021,89.19000244140625,90.7300033569336,3109200,91.3000030517578,90.08000183105467,87.39097595214844
09-12-2021,88.2300033569336,89.76000213623047,3957600,89.91000366210938,88.87999725341797,86.22679138183594
10-12-2021,87.30999755859375,89.91000366210938,3615200,89.98999786376953,89.68000030517578,87.00291442871094
13-12-2021,86.81999969482422,88.80000305175781,3999100,89.5199966430664,88.02999877929688,85.40216064453125
14-12-2021,84.43000030517578,85.41000366210938,3412400,86.48999786376953,85.30000305175781,84.67749786376953
15-12-2021,82.06999969482422,85.62999725341797,3148500,85.69000244140625,84.80999755859375,84.1910629272461
16-12-2021,85.44999694824219,85.86000061035156,5108400,88.5199966430664,86.19000244140625,85.56099700927734
17-12-2021,83.47000122070312,85.81999969482422,9057600,85.83000183105469,84.0,83.38697814941406
20-12-2021,80.66999816894531,81.80000305175781,2937500,83.62999725341797,83.58000183105469,82.97004699707031
21-12-2021,84.31999969482422,84.4800033569336,3089500,86.63999938964844,86.3499984741211,85.7198257446289
22-12-2021,84.87999725341797,86.22000122070312,2713900,87.94999694824219,87.22000122070312,86.58348083496094
23-12-2021,86.87000274658203,87.25,2458300,88.2300033569336,87.18000030517578,86.54376983642578
27-12-2021,86.04000091552734,86.98999786376953,2714800,90.81999969482422,90.77999877929688,90.11750030517578
28-12-2021,89.08000183105469,91.4000015258789,2307900,91.63999938964844,90.22000122070312,89.56158447265625
29-12-2021,89.25,89.87999725341797,2053100,91.06999969482422,89.8499984741211,89.19428253173828
30-12-2021,89.08000183105469,89.9800033569336,2228300,90.75,89.18000030517578,88.5291748046875
31-12-2021,88.43000030517578,88.88999938964844,2062300,89.56999969482422,88.83000183105469,88.18173217773438
03-01-2022,88.29000091552734,88.33000183105469,2997400,91.22000122070312,91.16000366210938,90.4947280883789
04-01-2022,91.6500015258789,92.0500030517578,5716500,96.2699966430664,95.3499984741211,94.65414428710938
05-01-2022,93.5500030517578,97.0,6632100,97.33000183105467,93.5999984741211,92.91691589355467
06-01-2022,94.56999969482422,97.25,5254700,97.4000015258789,95.5199966430664,94.82290649414062
07-01-2022,94.88999938964844,96.01000213623048,6275900,98.2699966430664,98.16000366210938,97.44364166259766
10-01-2022,96.02999877929688,98.36000061035156,5381700,99.30999755859376,98.05999755859376,97.34436798095705
11-01-2022,97.43000030517578,99.3499984741211,4866400,102.44000244140624,102.1999969482422,101.45415496826172
12-01-2022,101.25,103.29000091552734,3953900,103.5,102.7699966430664,102.0199966430664
13-01-2022,100.62000274658205,101.5,3469200,103.3499984741211,102.0,102.0
14-01-2022,102.12999725341795,102.12999725341795,4979200,106.0199966430664,105.62999725341795,105.62999725341795
18-01-2022,104.31999969482422,107.5999984741211,6205400,107.98999786376952,105.66999816894533,105.66999816894533
19-01-2022,103.0500030517578,106.77999877929688,4935500,107.16999816894533,105.12999725341795,105.12999725341795
20-01-2022,103.0500030517578,103.73999786376952,4863500,107.81999969482422,103.5,103.5
21-01-2022,99.4499969482422,102.38999938964844,3801600,102.54000091552734,100.62999725341795,100.62999725341795
24-01-2022,95.93000030517578,97.5199966430664,5916700,103.04000091552734,102.30999755859376,102.30999755859376
25-01-2022,99.36000061035156,102.25,4764900,107.6999969482422,106.94000244140624,106.94000244140624
26-01-2022,106.06999969482422,107.66999816894533,5122500,109.9000015258789,107.52999877929688,107.52999877929688
27-01-2022,107.75,109.66999816894533,6217600,111.27999877929688,109.75,109.75
28-01-2022,107.41999816894533,109.75,3832600,110.9499969482422,109.6999969482422,109.6999969482422
31-01-2022,107.68000030517578,110.52999877929688,5685000,113.1999969482422,111.4800033569336,111.4800033569336
01-02-2022,109.97000122070312,110.18000030517578,4590900,114.93000030517578,113.18000030517578,113.18000030517578
02-02-2022,109.26000213623048,112.54000091552734,4368300,113.26000213623048,112.91999816894533,112.91999816894533
03-02-2022,109.9499969482422,112.25,3569000,112.97000122070312,111.77999877929688,111.77999877929688
04-02-2022,112.93000030517578,113.30999755859376,3707100,116.52999877929688,113.6999969482422,113.6999969482422
07-02-2022,111.41000366210938,113.33999633789062,3282800,116.29000091552734,114.69000244140624,114.69000244140624
08-02-2022,109.56999969482422,113.4000015258789,5698400,113.61000061035156,111.52999877929688,111.52999877929688
09-02-2022,111.12000274658205,111.45999908447266,2969100,114.23999786376952,113.30999755859376,113.30999755859376
10-02-2022,111.8499984741211,112.4000015258789,3861900,115.45999908447266,112.66000366210938,112.66000366210938
11-02-2022,113.12999725341795,113.7300033569336,4731100,116.88999938964844,116.75,116.75
