Date,Low,Open,Volume,High,Close,Adjusted Close
04-04-2019,114.5500030517578,115.33999633789062,1301900,115.98999786376952,115.0,109.89241790771484
05-04-2019,114.62000274658205,115.08000183105467,837800,115.63999938964844,114.95999908447266,109.85419464111328
08-04-2019,113.7699966430664,114.77999877929688,988200,114.88999938964844,114.4000015258789,109.31908416748048
09-04-2019,113.3499984741211,113.83000183105467,797500,114.83999633789062,114.27999877929688,109.20439910888672
10-04-2019,114.45999908447266,114.66000366210938,779300,115.23999786376952,114.9000015258789,109.79686737060548
11-04-2019,114.25,114.9000015258789,761900,115.2699966430664,114.5199966430664,109.4337387084961
12-04-2019,114.58999633789062,115.4000015258789,879800,115.77999877929688,115.5999984741211,110.46575927734376
15-04-2019,115.4800033569336,115.87000274658205,1094100,116.56999969482422,116.47000122070312,111.29713439941406
16-04-2019,116.62999725341795,116.9000015258789,2004200,118.43000030517578,118.4000015258789,113.14141845703124
17-04-2019,117.16999816894533,118.6999969482422,1659900,118.7699966430664,117.38999938964844,112.17627716064452
18-04-2019,119.22000122070312,119.77999877929688,3742000,121.29000091552734,119.86000061035156,114.5365753173828
22-04-2019,116.87000274658205,118.6500015258789,1854900,119.1999969482422,117.23999786376952,112.03294372558594
23-04-2019,116.37999725341795,117.33000183105467,1819800,118.5,117.62000274658205,112.39606475830078
24-04-2019,116.48999786376952,117.7300033569336,1038900,118.0999984741211,116.63999938964844,111.4595718383789
25-04-2019,115.08999633789062,116.30999755859376,896600,116.30999755859376,115.52999877929688,110.39886474609376
26-04-2019,115.27999877929688,116.0,905500,118.0500030517578,117.80999755859376,112.57762908935548
29-04-2019,116.9800033569336,117.98999786376952,896800,117.98999786376952,117.11000061035156,111.9087142944336
30-04-2019,116.29000091552734,117.13999938964844,894800,117.72000122070312,117.5,112.28138732910156
01-05-2019,115.4000015258789,117.97000122070312,794700,117.97000122070312,115.47000122070312,110.341552734375
02-05-2019,114.81999969482422,115.12000274658205,809100,116.7699966430664,116.76000213623048,111.57424926757812
03-05-2019,116.68000030517578,117.26000213623048,686600,117.8000030517578,117.62999725341795,112.4056167602539
06-05-2019,115.05999755859376,116.0,815600,116.51000213623048,116.29000091552734,111.12512969970705
07-05-2019,113.76000213623048,115.04000091552734,1217100,115.37000274658205,114.45999908447266,109.37640380859376
08-05-2019,113.4499969482422,114.08000183105467,697300,114.63999938964844,114.0199966430664,108.95594787597656
09-05-2019,112.0,112.7699966430664,1045300,113.45999908447266,112.87999725341795,108.32260131835938
10-05-2019,110.3000030517578,112.5500030517578,1345900,112.9499969482422,112.23999786376952,107.70843505859376
13-05-2019,110.0500030517578,110.5500030517578,1138400,111.87000274658205,111.25,106.75841522216795
14-05-2019,110.87999725341795,111.41000366210938,759800,112.3000030517578,111.55999755859376,107.05589294433594
15-05-2019,110.9000015258789,111.16999816894533,1072800,112.52999877929688,111.94000244140624,107.42053985595705
16-05-2019,112.19000244140624,112.66000366210938,1211200,114.0199966430664,112.91999816894533,108.3609848022461
17-05-2019,111.37000274658205,111.95999908447266,1676100,112.52999877929688,111.7699966430664,107.25740814208984
20-05-2019,107.4499969482422,110.87000274658205,1976300,111.27999877929688,107.73999786376952,103.39012145996094
21-05-2019,106.68000030517578,107.43000030517578,1726700,109.16999816894533,109.0,104.59925079345705
22-05-2019,107.5999984741211,108.29000091552734,1367400,108.68000030517578,108.4800033569336,104.10025024414062
23-05-2019,106.2300033569336,107.91000366210938,1499700,107.9499969482422,106.81999969482422,102.50727081298828
24-05-2019,106.63999938964844,107.87000274658205,986600,107.91000366210938,107.75,103.39971160888672
28-05-2019,107.33999633789062,107.51000213623048,1468000,108.3499984741211,107.51000213623048,103.16940307617188
29-05-2019,106.33000183105467,107.0999984741211,1200600,107.61000061035156,107.18000030517578,102.8527374267578
30-05-2019,106.95999908447266,107.16000366210938,619100,108.11000061035156,107.23999786376952,102.91031646728516
31-05-2019,104.56999969482422,105.93000030517578,1214600,106.33000183105467,104.6500015258789,100.42486572265624
03-06-2019,104.44000244140624,104.66000366210938,1647800,107.77999877929688,107.77999877929688,103.42850494384766
04-06-2019,108.7300033569336,109.08000183105467,2105700,111.72000122070312,111.70999908447266,107.19983673095705
05-06-2019,110.1999969482422,112.37999725341795,2427300,112.7699966430664,112.3499984741211,107.81400299072266
06-06-2019,112.12000274658205,112.91000366210938,2578400,113.2300033569336,112.98999786376952,108.42813873291016
07-06-2019,113.12999725341795,113.55999755859376,1859000,114.56999969482422,113.98999786376952,109.38777923583984
10-06-2019,113.48999786376952,114.2699966430664,1647800,114.6999969482422,114.38999938964844,109.77163696289062
11-06-2019,115.33000183105467,115.33000183105467,1407700,117.3499984741211,116.8499984741211,112.13231658935548
12-06-2019,115.41000366210938,117.0,672400,117.38999938964844,116.98999786376952,112.26666259765624
13-06-2019,116.23999786376952,117.19000244140624,640600,117.58999633789062,116.91000366210938,112.1898956298828
14-06-2019,115.91000366210938,116.83999633789062,811500,116.83999633789062,116.5500030517578,111.84442901611328
17-06-2019,114.77999877929688,116.79000091552734,1020600,116.81999969482422,114.93000030517578,110.2898406982422
18-06-2019,114.47000122070312,115.5,1161600,115.76000213623048,114.68000030517578,110.04991912841795
19-06-2019,114.33000183105467,115.18000030517578,1156600,116.04000091552734,115.66000366210938,110.99036407470705
20-06-2019,114.5,117.0,1506100,117.3499984741211,115.19000244140624,110.53934478759766
21-06-2019,114.54000091552734,115.43000030517578,2309900,116.08999633789062,116.06999969482422,111.3838119506836
24-06-2019,115.9499969482422,116.0,1021200,117.37000274658205,116.9000015258789,112.18029022216795
25-06-2019,115.5,117.0199966430664,710900,117.06999969482422,116.2699966430664,111.5757293701172
26-06-2019,115.29000091552734,116.19000244140624,797800,116.5999984741211,115.52999877929688,110.8656005859375
27-06-2019,115.7300033569336,116.20999908447266,721600,116.52999877929688,115.88999938964844,111.21107482910156
28-06-2019,115.68000030517578,116.1500015258789,2138200,116.83000183105467,116.70999908447266,111.99796295166016
01-07-2019,117.11000061035156,117.66000366210938,750500,118.68000030517578,118.62999725341795,113.84044647216795
02-07-2019,117.27999877929688,118.87999725341795,731100,118.87999725341795,118.08999633789062,113.3222427368164
03-07-2019,117.80999755859376,117.80999755859376,453900,119.0999984741211,119.08000183105467,114.27228546142578
05-07-2019,117.0500030517578,118.12000274658205,565200,118.20999908447266,117.95999908447266,113.19749450683594
08-07-2019,115.27999877929688,117.5,1338600,117.91000366210938,116.37999725341795,111.68128967285156
09-07-2019,115.3000030517578,116.02999877929688,1178400,116.27999877929688,115.94000244140624,111.25904846191406
10-07-2019,115.16999816894533,116.5,661000,116.91000366210938,115.41000366210938,110.75045776367188
11-07-2019,114.56999969482422,115.43000030517578,961900,116.02999877929688,116.0,111.31663513183594
12-07-2019,116.2699966430664,116.27999877929688,1117000,117.8499984741211,117.04000091552734,112.31464385986328
15-07-2019,116.77999877929688,117.1500015258789,1070400,118.05999755859376,117.70999908447266,112.95758819580078
16-07-2019,117.4000015258789,117.93000030517578,1627500,118.5199966430664,117.8499984741211,113.0919418334961
17-07-2019,116.05999755859376,117.98999786376952,1428100,117.98999786376952,116.61000061035156,111.90198516845705
18-07-2019,114.98999786376952,114.98999786376952,2015500,119.0,117.0,112.27625274658205
19-07-2019,117.36000061035156,118.12999725341795,2025200,118.87999725341795,117.51000213623048,112.76568603515624
22-07-2019,116.66999816894533,117.54000091552734,1077700,118.30999755859376,116.9499969482422,112.228271484375
23-07-2019,116.9499969482422,117.4800033569336,2019400,118.95999908447266,118.95999908447266,114.15711975097656
24-07-2019,117.58999633789062,118.66000366210938,1629700,119.29000091552734,118.0999984741211,113.33184814453124
25-07-2019,117.58000183105467,118.2300033569336,1803700,119.08000183105467,118.13999938964844,113.37023162841795
26-07-2019,117.0,118.12999725341795,1209500,118.20999908447266,117.94000244140624,113.17830657958984
29-07-2019,117.4000015258789,117.69000244140624,1165100,119.0500030517578,118.43000030517578,113.64852142333984
30-07-2019,117.3499984741211,117.8000030517578,785600,119.3499984741211,118.95999908447266,114.15711975097656
31-07-2019,116.48999786376952,118.88999938964844,815300,119.41000366210938,117.38999938964844,112.65052032470705
01-08-2019,114.98999786376952,117.38999938964844,1094500,118.23999786376952,115.66999816894533,110.99994659423828
02-08-2019,112.4000015258789,115.6500015258789,1124600,115.6500015258789,114.16999816894533,109.56051635742188
05-08-2019,109.6999969482422,112.91999816894533,1080200,113.08999633789062,110.95999908447266,106.48011779785156
06-08-2019,109.38999938964844,111.48999786376952,1052600,111.48999786376952,110.9800033569336,106.49932098388672
07-08-2019,109.62000274658205,110.0500030517578,2167300,113.23999786376952,112.86000061035156,108.30340576171876
08-08-2019,114.37999725341795,114.58000183105467,1807900,116.76000213623048,116.6500015258789,111.9403839111328
09-08-2019,114.66000366210938,115.41999816894533,1098600,116.1999969482422,115.33000183105467,111.15967559814452
12-08-2019,112.31999969482422,114.83000183105467,1221700,115.18000030517578,112.5500030517578,108.48020935058594
13-08-2019,111.73999786376952,112.2300033569336,986800,114.7699966430664,113.08999633789062,109.00067138671876
14-08-2019,109.86000061035156,111.26000213623048,1249000,111.9800033569336,110.22000122070312,106.23445129394533
15-08-2019,108.9499969482422,110.33000183105467,890900,110.86000061035156,109.62000274658205,105.6561508178711
16-08-2019,109.13999938964844,109.13999938964844,855600,111.44000244140624,110.72000122070312,106.71637725830078
19-08-2019,111.36000061035156,111.9800033569336,737200,112.70999908447266,111.62000274658205,107.58383178710938
20-08-2019,109.77999877929688,111.1999969482422,1249400,111.1999969482422,110.3000030517578,106.31155395507812
21-08-2019,110.5,111.41000366210938,697700,111.91000366210938,110.6999969482422,106.69709014892578
22-08-2019,109.4499969482422,110.87000274658205,602200,111.2300033569336,110.0999984741211,106.11878967285156
23-08-2019,105.98999786376952,109.66000366210938,974300,109.93000030517578,106.54000091552734,102.68751525878906
26-08-2019,106.41000366210938,107.38999938964844,1168800,108.0,107.16999816894533,103.29473876953124
27-08-2019,106.95999908447266,108.16000366210938,1861700,108.37999725341795,107.41000366210938,103.52606964111328
28-08-2019,106.76000213623048,107.08000183105467,1090800,109.29000091552734,109.02999877929688,105.08749389648438
29-08-2019,110.06999969482422,110.38999938964844,586200,111.08000183105467,110.13999938964844,106.1573486328125
30-08-2019,110.47000122070312,111.1500015258789,762500,111.51000213623048,110.79000091552734,106.78385162353516
03-09-2019,108.9499969482422,109.77999877929688,848500,110.61000061035156,110.43000030517578,106.43685913085938
04-09-2019,110.81999969482422,111.41999816894533,958100,111.9000015258789,111.5199966430664,107.48745727539062
05-09-2019,112.47000122070312,112.91000366210938,1047100,114.18000030517578,113.33999633789062,109.24163818359376
06-09-2019,113.72000122070312,114.1999969482422,1058000,116.12000274658205,115.77999877929688,111.5934066772461
09-09-2019,114.86000061035156,116.1999969482422,1174600,116.58999633789062,116.51000213623048,112.29701232910156
10-09-2019,115.73999786376952,116.41000366210938,938800,117.2699966430664,117.2699966430664,113.02952575683594
11-09-2019,116.4800033569336,117.25,892900,117.87999725341795,117.68000030517578,113.4247055053711
12-09-2019,117.0,118.0999984741211,851900,118.38999938964844,118.20999908447266,113.93553924560548
13-09-2019,118.63999938964844,118.6500015258789,843900,119.9000015258789,119.37999725341795,115.063232421875
16-09-2019,114.9800033569336,118.13999938964844,1246800,118.19000244140624,115.36000061035156,111.1885986328125
17-09-2019,114.62000274658205,115.47000122070312,1448400,117.20999908447266,117.20999908447266,112.9717025756836
18-09-2019,116.8000030517578,117.27999877929688,1078700,119.56999969482422,119.43000030517578,115.11140441894533
19-09-2019,119.16999816894533,119.5,1215800,120.95999908447266,120.69000244140624,116.32585906982422
20-09-2019,119.0,120.7300033569336,1486500,121.0,119.26000213623048,114.94758605957033
23-09-2019,117.98999786376952,118.41000366210938,933900,119.1999969482422,118.3499984741211,114.07048034667967
24-09-2019,116.0199966430664,118.51000213623048,1139900,118.7300033569336,116.2300033569336,112.0271453857422
25-09-2019,116.25,116.6999969482422,675100,117.1500015258789,116.66000366210938,112.44159698486328
26-09-2019,115.5199966430664,116.5,995900,117.11000061035156,116.66000366210938,112.44159698486328
27-09-2019,116.48999786376952,116.72000122070312,1136700,118.80999755859376,118.22000122070312,113.94518280029295
30-09-2019,117.52999877929688,118.63999938964844,840700,119.1500015258789,118.51000213623048,114.22469329833984
01-10-2019,116.54000091552734,119.06999969482422,1004700,120.16999816894533,116.87000274658205,112.6439971923828
02-10-2019,113.5500030517578,115.3499984741211,1167500,115.87999725341795,114.41000366210938,110.27294158935548
03-10-2019,112.0199966430664,114.0999984741211,674600,114.61000061035156,114.5999984741211,110.45606994628906
04-10-2019,114.75,114.75,997500,116.91000366210938,116.62000274658205,112.40302276611328
07-10-2019,115.70999908447266,116.13999938964844,996100,116.95999908447266,115.70999908447266,111.52594757080078
08-10-2019,112.30999755859376,114.91000366210938,1146000,114.9499969482422,112.3499984741211,108.28743743896484
09-10-2019,113.26000213623048,113.5,1481800,115.02999877929688,114.58000183105467,110.43679809570312
10-10-2019,114.27999877929688,114.3499984741211,734400,115.87999725341795,115.66000366210938,111.4777603149414
11-10-2019,117.0999984741211,117.5,1313300,119.87000274658205,119.16999816894533,114.86083221435548
14-10-2019,117.12000274658205,118.58000183105467,1168700,119.7300033569336,117.20999908447266,112.9717025756836
15-10-2019,116.88999938964844,117.83999633789062,1275300,118.5999984741211,118.20999908447266,113.93553924560548
16-10-2019,117.8499984741211,118.12999725341795,1338900,120.02999877929688,118.95999908447266,114.65841674804688
17-10-2019,118.93000030517578,119.06999969482422,1784000,121.45999908447266,121.23999786376952,116.85596466064452
18-10-2019,122.73999786376952,123.0,3015800,124.9000015258789,124.2300033569336,119.73786926269533
21-10-2019,124.25,125.0,1688300,125.61000061035156,124.68000030517578,120.1715850830078
22-10-2019,123.27999877929688,124.97000122070312,1505600,125.62999725341795,125.2699966430664,120.74024963378906
23-10-2019,124.23999786376952,125.12000274658205,1670400,126.08000183105467,124.47000122070312,119.96917724609376
24-10-2019,123.04000091552734,125.05999755859376,1144700,125.0999984741211,123.58000183105467,119.1113739013672
25-10-2019,122.52999877929688,123.16000366210938,1210000,124.33000183105467,124.04000091552734,119.5547332763672
28-10-2019,123.44000244140624,124.04000091552734,1169400,124.63999938964844,123.70999908447266,119.23665618896484
29-10-2019,123.27999877929688,123.70999908447266,1258200,125.3499984741211,125.0500030517578,120.52820587158205
30-10-2019,123.7300033569336,124.68000030517578,1264900,126.27999877929688,125.9800033569336,121.42457580566406
31-10-2019,124.62000274658205,125.51000213623048,1387600,125.9800033569336,125.12000274658205,120.5956802368164
01-11-2019,125.13999938964844,125.72000122070312,960400,126.43000030517578,125.44000244140624,120.9040985107422
04-11-2019,125.98999786376952,126.2699966430664,1540500,128.17999267578125,128.08999633789062,123.4582748413086
05-11-2019,127.8000030517578,127.97000122070312,1509100,129.0800018310547,128.88999938964844,124.22933959960938
06-11-2019,128.30999755859375,128.97000122070312,1276100,130.02999877929688,129.77000427246094,125.0775375366211
07-11-2019,129.25,129.91000366210938,1169900,130.4199981689453,129.8300018310547,125.1353530883789
08-11-2019,128.3000030517578,130.0,863300,130.02000427246094,128.9199981689453,124.74829864501952
11-11-2019,127.9800033569336,128.16000366210938,916600,129.44000244140625,129.1999969482422,125.01922607421876
12-11-2019,129.3000030517578,129.38999938964844,843600,130.80999755859375,130.25,126.03526306152344
13-11-2019,129.05999755859375,129.24000549316406,893800,130.6999969482422,130.32000732421875,126.1030044555664
14-11-2019,129.17999267578125,129.8699951171875,738400,130.5,129.75,125.55143737792967
15-11-2019,129.0800018310547,130.35000610351562,767300,130.72999572753906,129.5,125.30953216552734
18-11-2019,128.25,129.0,1048900,129.77000427246094,128.9199981689453,124.74829864501952
19-11-2019,127.66999816894533,129.36000061035156,1273400,129.36000061035156,128.7899932861328,124.62249755859376
20-11-2019,126.48999786376952,128.49000549316406,1343500,128.77999877929688,126.5,122.40660095214844
21-11-2019,125.30999755859376,126.48999786376952,1114000,126.5500030517578,125.68000030517578,121.6131362915039
22-11-2019,125.26000213623048,125.94000244140624,816100,126.0,125.41000366210938,121.35187530517578
25-11-2019,125.56999969482422,126.0999984741211,2404900,128.11000061035156,127.79000091552734,123.65487670898438
26-11-2019,127.94000244140624,128.0500030517578,2273400,129.72000122070312,129.7100067138672,125.51275634765624
27-11-2019,128.4199981689453,129.7100067138672,919400,129.7100067138672,129.19000244140625,125.00955200195312
29-11-2019,128.50999450683594,129.07000732421875,450100,129.41000366210938,128.83999633789062,124.67089080810548
02-12-2019,128.27999877929688,129.3699951171875,1145700,129.66000366210938,128.5,124.34191131591795
03-12-2019,126.06999969482422,126.41999816894533,1896000,128.22999572753906,127.95999908447266,123.81936645507812
04-12-2019,128.6300048828125,129.13999938964844,2105900,130.39999389648438,129.10000610351562,124.92247772216795
05-12-2019,129.6699981689453,129.75,1653900,131.36000061035156,131.1300048828125,126.88680267333984
06-12-2019,132.3800048828125,132.85000610351562,1126900,133.82000732421875,132.5399932861328,128.2511444091797
09-12-2019,132.05999755859375,132.1199951171875,1140900,133.44000244140625,132.97999572753906,128.6769256591797
10-12-2019,132.0,132.91000366210938,997200,133.8000030517578,132.47000122070312,128.18341064453125
11-12-2019,131.8699951171875,132.36000061035156,911800,133.11000061035156,132.30999755859375,128.02859497070312
12-12-2019,132.05999755859375,132.58999633789062,1082000,134.13999938964844,133.75999450683594,129.4316864013672
13-12-2019,132.97999572753906,133.55999755859375,968900,134.36000061035156,133.00999450683594,128.7059326171875
16-12-2019,132.91000366210938,133.6300048828125,1212200,134.36000061035156,133.25,128.93817138671875
17-12-2019,132.14999389648438,133.0399932861328,1095700,133.25,133.10000610351562,128.79306030273438
18-12-2019,130.57000732421875,133.3000030517578,1236700,133.3000030517578,131.64999389648438,127.38994598388672
19-12-2019,130.75999450683594,131.75999450683594,1007400,132.80999755859375,132.4199981689453,128.1350555419922
20-12-2019,132.44000244140625,133.36000061035156,1901900,133.6300048828125,132.47000122070312,128.18341064453125
23-12-2019,131.83999633789062,132.5500030517578,1194900,133.2100067138672,133.00999450683594,128.7059326171875
24-12-2019,132.82000732421875,132.9600067138672,377700,133.63999938964844,133.5399932861328,129.21881103515625
26-12-2019,132.67999267578125,133.57000732421875,570400,133.58999633789062,133.36000061035156,129.0446319580078
27-12-2019,132.97999572753906,133.97999572753906,632100,133.97999572753906,133.30999755859375,128.99624633789062
30-12-2019,132.8000030517578,133.19000244140625,479300,133.52000427246094,132.9199981689453,128.61886596679688
31-12-2019,132.58999633789062,133.02000427246094,626500,133.50999450683594,133.49000549316406,129.17042541503906
02-01-2020,131.35000610351562,133.97000122070312,1393100,134.16000366210938,131.60000610351562,127.34158325195312
03-01-2020,129.6300048828125,130.0500030517578,1598400,130.85000610351562,129.69000244140625,125.49337005615234
06-01-2020,128.74000549316406,128.88999938964844,1529400,129.97999572753906,129.08999633789062,124.9127960205078
07-01-2020,128.0399932861328,128.58999633789062,2217600,129.27999877929688,128.0800018310547,123.93547821044922
08-01-2020,127.83000183105467,128.41000366210938,1313000,129.39999389648438,128.41000366210938,124.25480651855467
09-01-2020,128.22999572753906,128.7100067138672,1644900,129.08999633789062,128.66000366210938,124.49671173095705
10-01-2020,127.95999908447266,128.86000061035156,1699800,129.47000122070312,128.08999633789062,123.94515228271484
13-01-2020,127.45999908447266,127.73999786376952,2112300,129.3800048828125,129.22000122070312,125.03858184814452
14-01-2020,129.1999969482422,129.1999969482422,2208400,131.0500030517578,129.92999267578125,125.72560119628906
15-01-2020,129.47999572753906,129.7100067138672,1402400,131.8800048828125,130.74000549316406,126.50940704345705
16-01-2020,125.37999725341795,126.3499984741211,3290400,129.10000610351562,127.41000366210938,123.28717041015624
17-01-2020,125.83000183105467,127.54000091552734,2781500,128.74000549316406,128.49000549316406,124.3322296142578
21-01-2020,125.66999816894533,127.81999969482422,1917000,128.1199951171875,125.88999938964844,121.81633758544922
22-01-2020,125.55999755859376,126.18000030517578,1401800,126.55999755859376,126.16000366210938,122.0776138305664
23-01-2020,124.6500015258789,125.43000030517578,2183600,126.83999633789062,126.26000213623048,122.17437744140624
24-01-2020,125.62000274658205,126.62000274658205,1191800,126.8000030517578,125.80999755859376,121.73892211914062
27-01-2020,122.61000061035156,123.41999816894533,1368800,124.05999755859376,122.95999908447266,118.98114776611328
28-01-2020,123.06999969482422,123.47000122070312,1097900,124.52999877929688,124.02999877929688,120.01653289794922
29-01-2020,123.37999725341795,124.58000183105467,1142600,125.02999877929688,123.41999816894533,119.42627716064452
30-01-2020,120.93000030517578,122.18000030517578,1246300,123.25,123.11000061035156,119.12631225585938
31-01-2020,119.3499984741211,122.26000213623048,2323100,122.66000366210938,119.83999633789062,115.9621124267578
03-02-2020,119.93000030517578,120.48999786376952,2339800,122.0500030517578,121.33999633789062,117.41358184814452
04-02-2020,121.5199966430664,122.83999633789062,2238600,123.9800033569336,122.52999877929688,118.56507873535156
05-02-2020,122.5999984741211,123.58999633789062,2648300,125.0999984741211,124.86000061035156,120.81968688964844
06-02-2020,123.61000061035156,125.3000030517578,1384100,125.44000244140624,124.36000061035156,120.33586883544922
07-02-2020,122.2699966430664,123.6999969482422,1314800,123.86000061035156,122.61000061035156,118.64249420166016
10-02-2020,120.36000061035156,122.0500030517578,1944000,122.0500030517578,120.88999938964844,116.97814178466795
11-02-2020,121.1999969482422,121.45999908447266,1437700,122.94000244140624,121.9499969482422,118.00384521484376
12-02-2020,121.51000213623048,122.6500015258789,897300,122.72000122070312,122.36000061035156,118.40058135986328
13-02-2020,120.31999969482422,121.9000015258789,1263000,121.9000015258789,120.45999908447266,116.56204986572266
14-02-2020,119.51000213623048,120.41000366210938,1576900,120.94000244140624,120.1500015258789,116.26209259033205
18-02-2020,118.91000366210938,119.73999786376952,1081200,120.44000244140624,119.33000183105467,115.4686279296875
19-02-2020,119.13999938964844,119.58000183105467,1153700,120.0,119.5199966430664,115.65245819091795
20-02-2020,118.30999755859376,118.62000274658205,1733600,119.83000183105467,119.36000061035156,115.99259185791016
21-02-2020,118.37000274658205,118.9800033569336,1100800,119.29000091552734,118.91000366210938,115.5552978515625
24-02-2020,114.48999786376952,116.70999908447266,1870500,117.05999755859376,115.2699966430664,112.01799011230467
25-02-2020,109.5199966430664,115.69000244140624,2506500,115.73999786376952,109.62999725341795,106.53710174560548
26-02-2020,108.9800033569336,110.48999786376952,2067000,111.62999725341795,109.08999633789062,106.01234436035156
27-02-2020,103.55999755859376,107.62000274658205,2287200,109.12999725341795,103.58999633789062,100.6675033569336
28-02-2020,100.2300033569336,100.58000183105467,4461000,104.48999786376952,104.4499969482422,101.50325012207033
02-03-2020,104.06999969482422,104.91999816894533,3748800,106.30999755859376,105.30999755859376,102.3389892578125
03-03-2020,102.75,105.06999969482422,2642100,106.9499969482422,104.38999938964844,101.44493865966795
04-03-2020,104.9499969482422,105.87999725341795,2941400,107.95999908447266,107.95999908447266,104.91422271728516
05-03-2020,101.02999877929688,105.22000122070312,2865500,105.31999969482422,102.6500015258789,99.75401306152344
06-03-2020,99.56999969482422,99.66000366210938,2480400,102.81999969482422,101.4499969482422,98.5878677368164
09-03-2020,95.47000122070312,95.79000091552734,4053500,103.02999877929688,97.41000366210938,94.66185760498048
10-03-2020,97.52999877929688,100.2699966430664,3491700,102.0,101.9800033569336,99.10293579101562
11-03-2020,95.22000122070312,99.18000030517578,2183900,99.18000030517578,96.97000122070312,94.23428344726562
12-03-2020,86.44000244140625,87.51000213623047,2981400,92.30999755859376,89.9000015258789,87.36373138427734
13-03-2020,90.11000061035156,94.30999755859376,2716100,95.33000183105467,94.19000244140624,91.53270721435548
16-03-2020,81.19999694824219,82.93000030517578,2741800,88.55999755859375,82.41999816894531,80.09475708007812
17-03-2020,79.61000061035156,84.33000183105469,3407300,84.33000183105469,82.62000274658203,80.28911590576172
18-03-2020,70.30999755859375,78.55000305175781,3112000,80.0,72.91999816894531,70.8627700805664
19-03-2020,69.7699966430664,72.20999908447266,2642100,78.83000183105469,76.55999755859375,74.40007781982422
20-03-2020,71.75,77.11000061035156,4507300,80.45999908447266,79.72000122070312,77.4709243774414
23-03-2020,71.52999877929688,78.37999725341797,3043000,80.62999725341797,72.5,70.45462036132812
24-03-2020,75.62000274658203,75.81999969482422,2550500,82.23999786376953,82.05000305175781,79.73519134521484
25-03-2020,77.7699966430664,77.7699966430664,3782700,89.58000183105469,85.70999908447266,83.29193115234375
26-03-2020,85.0,86.23999786376953,1984100,90.38999938964844,89.76000213623047,87.2276840209961
27-03-2020,84.44999694824219,86.19000244140625,1669600,87.27999877929688,85.0,82.60197448730469
30-03-2020,83.66999816894531,85.8499984741211,1579100,87.19999694824219,85.91999816894531,83.49601745605469
31-03-2020,83.12000274658203,85.13999938964844,1897100,87.33000183105469,83.5999984741211,81.241455078125
01-04-2020,79.69999694824219,80.55999755859375,2031800,82.30000305175781,79.88999938964844,77.63612365722656
02-04-2020,78.01000213623047,79.58999633789062,3956300,82.31999969482422,80.7300033569336,78.45243072509766
03-04-2020,80.16999816894531,80.38999938964844,2421800,81.68000030517578,80.43000030517578,78.16089630126953
06-04-2020,84.0,84.38999938964844,2850100,87.68000030517578,86.62999725341797,84.18598937988281
07-04-2020,89.08999633789062,89.08999633789062,2115500,93.27999877929688,91.08999633789062,88.52014923095703
08-04-2020,91.06999969482422,91.98999786376952,1722400,94.0999984741211,93.3499984741211,90.7164077758789
09-04-2020,94.1999969482422,94.72000122070312,2184700,98.80999755859376,97.16999816894533,94.42861938476562
13-04-2020,93.0199966430664,95.91999816894533,1557400,96.98999786376952,93.68000030517578,91.03709411621094
14-04-2020,92.2300033569336,95.88999938964844,1960900,95.88999938964844,92.79000091552734,90.17219543457033
15-04-2020,87.80000305175781,90.41000366210938,1291700,91.52999877929688,88.4800033569336,85.98380279541016
16-04-2020,86.30000305175781,88.9000015258789,1733100,89.4800033569336,88.9000015258789,86.3919448852539
17-04-2020,91.19000244140624,91.4800033569336,1345400,94.0199966430664,93.30999755859376,90.67752838134766
20-04-2020,90.16999816894533,91.62999725341795,1045800,93.3000030517578,91.0999984741211,88.52986907958984
21-04-2020,87.75,88.7699966430664,1511500,89.83999633789062,88.01000213623047,85.52704620361328
22-04-2020,89.05999755859375,89.76000213623047,1287300,90.8000030517578,90.06999969482422,87.52893829345703
23-04-2020,90.45999908447266,90.86000061035156,1040200,92.66000366210938,90.5199966430664,87.96623992919922
24-04-2020,89.43000030517578,91.30999755859376,1782400,93.16999816894533,92.73999786376952,90.12361145019533
27-04-2020,93.1500015258789,93.3499984741211,1764600,96.63999938964844,96.0,93.29163360595705
28-04-2020,90.94000244140624,97.5,3226900,99.08999633789062,91.48999786376952,88.90886688232422
29-04-2020,92.86000061035156,93.29000091552734,2614900,97.37000274658205,95.87999725341795,93.1750259399414
30-04-2020,90.52999877929688,94.19000244140624,2266300,94.19000244140624,90.83000183105467,88.26750183105469
01-05-2020,86.69000244140625,89.19999694824219,1730000,89.33999633789062,88.0,85.51732635498047
04-05-2020,85.19000244140625,86.69999694824219,2777000,87.08000183105469,86.83000183105469,84.3803482055664
05-05-2020,87.7699966430664,88.16000366210938,1983700,89.72000122070312,88.2699966430664,85.77970886230469
06-05-2020,88.31999969482422,89.55000305175781,1758700,91.55999755859376,88.80000305175781,86.2947769165039
07-05-2020,89.5199966430664,89.93000030517578,1680700,90.94000244140624,90.36000061035156,87.81074523925781
08-05-2020,90.87000274658205,91.54000091552734,1818800,92.70999908447266,91.9800033569336,89.89241790771484
11-05-2020,89.61000061035156,90.8000030517578,1600400,91.08000183105467,90.41999816894533,88.3678207397461
12-05-2020,87.5999984741211,90.93000030517578,1668700,91.58000183105467,87.62999725341797,85.6411361694336
13-05-2020,83.5999984741211,87.01000213623047,1488800,87.4800033569336,84.23999786376953,82.32808685302734
14-05-2020,81.43000030517578,82.63999938964844,2149700,86.02999877929688,85.97000122070312,84.01881408691406
15-05-2020,84.5999984741211,85.31999969482422,1889300,86.93000030517578,86.91999816894531,84.94725036621094
18-05-2020,89.94999694824219,90.86000061035156,1601800,92.62999725341795,91.8499984741211,89.76536560058594
19-05-2020,90.3499984741211,91.30999755859376,2714200,94.19000244140624,93.22000122070312,91.10426330566406
20-05-2020,94.63999938964844,94.63999938964844,2277700,96.31999969482422,95.98999786376952,93.81139373779295
21-05-2020,94.61000061035156,95.5999984741211,3132800,96.44000244140624,95.08999633789062,92.93181610107422
22-05-2020,94.4800033569336,95.13999938964844,1046400,96.23999786376952,96.18000030517578,93.99708557128906
26-05-2020,99.20999908447266,99.72000122070312,1696800,101.33999633789062,100.0,97.73037719726562
27-05-2020,101.7300033569336,102.61000061035156,1998600,104.29000091552734,102.3499984741211,100.02704620361328
28-05-2020,100.91999816894533,103.16000366210938,2030300,103.18000030517578,102.63999938964844,100.31046295166016
29-05-2020,100.55999755859376,102.0,2772600,102.44000244140624,101.66999816894533,99.36247253417967
01-06-2020,101.16000366210938,101.73999786376952,1659800,103.55999755859376,103.37000274658205,101.0239028930664
02-06-2020,103.76000213623048,103.79000091552734,2752200,107.94000244140624,107.5199966430664,105.0797119140625
03-06-2020,108.5199966430664,109.16000366210938,2728800,112.76000213623048,111.68000030517578,109.14529418945312
04-06-2020,109.48999786376952,110.05999755859376,1710500,111.6999969482422,111.12000274658205,108.59800720214844
05-06-2020,113.61000061035156,114.5,2057200,116.4499969482422,113.9499969482422,111.36377716064452
08-06-2020,112.6500015258789,114.86000061035156,1522500,116.37999725341795,113.4000015258789,110.82626342773438
09-06-2020,109.72000122070312,111.88999938964844,1559500,112.16999816894533,111.41999816894533,108.89119720458984
10-06-2020,108.33000183105467,111.33000183105467,1826200,111.62999725341795,109.04000091552734,106.56521606445312
11-06-2020,99.3000030517578,105.7699966430664,2452500,105.7699966430664,99.55999755859376,97.30037689208984
12-06-2020,100.16999816894533,102.58999633789062,1224600,104.37000274658205,101.62999725341795,99.32339477539062
15-06-2020,98.41000366210938,98.97000122070312,1068700,103.70999908447266,103.1999969482422,100.85774993896484
16-06-2020,103.73999786376952,106.45999908447266,816600,107.83000183105467,104.76000213623048,102.38235473632812
17-06-2020,104.16999816894533,105.58000183105467,848300,106.3000030517578,104.87000274658205,102.48985290527344
18-06-2020,103.93000030517578,104.26000213623048,876300,105.54000091552734,104.41999816894533,102.0500717163086
19-06-2020,102.87999725341795,107.36000061035156,1809100,107.61000061035156,103.72000122070312,101.36595153808594
22-06-2020,101.88999938964844,103.26000213623048,856400,104.4000015258789,103.66999816894533,101.31710052490234
23-06-2020,103.4800033569336,105.11000061035156,1097900,105.51000213623048,103.69000244140624,101.33663940429688
24-06-2020,100.4000015258789,102.41999816894533,1239400,102.94000244140624,101.87999725341795,99.56771850585938
25-06-2020,100.13999938964844,101.7300033569336,899600,102.9000015258789,102.7699966430664,100.43751525878906
26-06-2020,101.19000244140624,102.23999786376952,3616700,103.1999969482422,102.13999938964844,99.82181549072266
29-06-2020,102.5500030517578,103.3000030517578,1218800,104.9800033569336,103.94000244140624,101.58096313476562
30-06-2020,104.0999984741211,105.2300033569336,1259300,106.9800033569336,106.05999755859376,103.65284729003906
01-07-2020,105.0999984741211,106.16999816894533,1382400,107.0199966430664,106.3499984741211,103.93627166748048
02-07-2020,107.80999755859376,108.11000061035156,1395400,110.12000274658205,109.06999969482422,106.5945281982422
06-07-2020,107.8499984741211,110.8499984741211,1606100,111.8499984741211,109.87999725341795,107.38614654541016
07-07-2020,107.47000122070312,108.88999938964844,1641800,109.2699966430664,108.41999816894533,105.95928955078124
08-07-2020,105.19000244140624,108.18000030517578,1314700,109.11000061035156,106.47000122070312,104.05355072021484
09-07-2020,103.58000183105467,106.5,1326000,106.5,105.08000183105467,102.6950912475586
10-07-2020,104.87000274658205,105.5199966430664,738500,107.0999984741211,107.04000091552734,104.610595703125
13-07-2020,107.76000213623048,108.31999969482422,1926900,110.81999969482422,109.37999725341795,106.89749908447266
14-07-2020,108.13999938964844,108.98999786376952,1602300,112.23999786376952,111.72000122070312,109.18439483642578
15-07-2020,112.94000244140624,113.56999969482422,1532100,116.18000030517578,115.62000274658205,112.99588012695312
16-07-2020,113.3499984741211,115.2300033569336,1919400,115.91000366210938,115.26000213623048,112.64405059814452
17-07-2020,110.55999755859376,118.80999755859376,5558100,119.02999877929688,111.87999725341795,109.34075927734376
20-07-2020,109.13999938964844,112.83999633789062,2061200,112.91000366210938,109.38999938964844,106.9072723388672
21-07-2020,109.75,109.91999816894533,1545200,111.41000366210938,110.16000366210938,107.65980529785156
22-07-2020,109.4800033569336,109.76000213623048,1935600,112.01000213623048,111.68000030517578,109.14529418945312
23-07-2020,110.1999969482422,111.4800033569336,1187100,112.33000183105467,110.83000183105467,108.31459045410156
24-07-2020,110.06999969482422,110.6500015258789,957000,111.66999816894533,110.55999755859376,108.05071258544922
27-07-2020,109.6500015258789,110.58999633789062,1428900,111.58000183105467,110.2300033569336,107.72821044921876
28-07-2020,108.3499984741211,109.8499984741211,1237300,110.58000183105467,108.58000183105467,106.11565399169922
29-07-2020,108.38999938964844,109.79000091552734,1364200,110.55999755859376,110.41000366210938,107.90412139892578
30-07-2020,107.58000183105467,108.5500030517578,1112100,108.94000244140624,108.1999969482422,105.74427795410156
31-07-2020,105.94000244140624,108.5500030517578,1293500,108.5500030517578,107.6500015258789,105.20677185058594
03-08-2020,107.05999755859376,107.83999633789062,1185400,108.77999877929688,107.37999725341795,104.9428939819336
04-08-2020,106.93000030517578,107.11000061035156,1210900,108.4499969482422,107.79000091552734,105.34358978271484
05-08-2020,108.41000366210938,108.41000366210938,2123800,112.55999755859376,111.66000366210938,109.12574005126952
06-08-2020,110.4000015258789,111.75,1516300,112.43000030517578,111.44000244140624,108.9107437133789
07-08-2020,110.44000244140624,110.55999755859376,1548500,113.7300033569336,113.70999908447266,111.67034149169922
10-08-2020,113.5,113.54000091552734,841000,115.91999816894533,115.73999786376952,113.66392517089844
11-08-2020,119.45999908447266,119.5500030517578,3354300,123.5999984741211,120.88999938964844,118.72154998779295
12-08-2020,119.1500015258789,122.11000061035156,1581100,122.47000122070312,120.98999786376952,118.81975555419922
13-08-2020,118.6500015258789,120.01000213623048,1084700,120.68000030517578,118.80999755859376,116.6788558959961
14-08-2020,117.66000366210938,118.33000183105467,871900,119.9499969482422,118.9800033569336,116.84580993652344
17-08-2020,118.56999969482422,119.86000061035156,841700,120.12999725341795,118.91999816894533,116.78688049316406
18-08-2020,118.26000213623048,119.16000366210938,957400,119.43000030517578,118.69000244140624,116.5610122680664
19-08-2020,118.18000030517578,119.2300033569336,1104000,119.6999969482422,118.63999938964844,116.51190948486328
20-08-2020,117.3499984741211,117.68000030517578,736300,118.6500015258789,118.23999786376952,116.11908721923828
21-08-2020,117.3000030517578,117.9800033569336,940800,118.66000366210938,118.2300033569336,116.10926818847656
24-08-2020,118.77999877929688,119.16000366210938,736200,121.16000366210938,121.08000183105467,118.90814208984376
25-08-2020,119.2699966430664,121.52999877929688,850200,121.70999908447266,119.81999969482422,117.67073822021484
26-08-2020,119.37000274658205,119.58000183105467,619900,120.87999725341795,119.9499969482422,117.79840850830078
27-08-2020,120.0500030517578,120.94000244140624,941500,121.54000091552734,120.79000091552734,118.62335205078124
28-08-2020,120.12000274658205,120.9499969482422,877000,122.3000030517578,122.12000274658205,119.9294891357422
31-08-2020,119.95999908447266,122.0999984741211,938100,122.3000030517578,120.4000015258789,118.24034118652344
01-09-2020,119.5,119.94000244140624,1539700,124.0,124.0,121.77577209472656
02-09-2020,123.5199966430664,123.6500015258789,1475400,126.3000030517578,125.9800033569336,123.72025299072266
03-09-2020,121.2300033569336,125.7699966430664,1486500,126.0500030517578,122.79000091552734,120.58747863769533
04-09-2020,121.9000015258789,123.77999877929688,1230100,124.80999755859376,122.61000061035156,120.41069793701172
08-09-2020,119.38999938964844,121.6999969482422,1329400,121.9800033569336,120.98999786376952,118.81975555419922
09-09-2020,122.52999877929688,122.63999938964844,1789700,126.06999969482422,125.33999633789062,123.09172058105467
10-09-2020,125.37000274658205,125.75,1723200,127.41000366210938,125.73999786376952,123.48455810546876
11-09-2020,125.08999633789062,125.94000244140624,1263200,127.5999984741211,127.0999984741211,124.82015991210938
14-09-2020,127.63999938964844,128.0,1779900,131.0500030517578,130.2100067138672,127.87439727783205
15-09-2020,128.8800048828125,130.61000061035156,1411000,131.08999633789062,129.9199981689453,127.5895767211914
16-09-2020,129.0,130.05999755859375,1325100,131.0,129.0399932861328,126.72535705566406
17-09-2020,127.11000061035156,127.9800033569336,1115800,130.0,129.25,126.93160247802734
18-09-2020,125.37000274658205,128.6199951171875,1916800,129.27000427246094,125.7699966430664,123.51400756835938
21-09-2020,118.8000030517578,123.56999969482422,1441500,123.88999938964844,120.08000183105467,117.92608642578124
22-09-2020,119.33999633789062,119.77999877929688,1362100,121.19000244140624,120.81999969482422,118.6528091430664
23-09-2020,117.76000213623048,120.36000061035156,1795900,121.1500015258789,118.31999969482422,116.19763946533205
24-09-2020,116.9499969482422,118.6500015258789,1066600,120.08999633789062,118.9499969482422,116.81635284423828
25-09-2020,118.02999877929688,118.25,789600,120.72000122070312,120.25,118.09302520751952
28-09-2020,121.62999725341795,122.37999725341795,1094300,123.62999725341795,121.73999786376952,119.55630493164062
29-09-2020,120.29000091552734,122.1999969482422,687800,122.7699966430664,120.33000183105467,118.1716079711914
30-09-2020,120.19000244140624,121.12000274658205,1477400,123.5999984741211,122.08000183105467,119.89021301269533
01-10-2020,121.1999969482422,122.41000366210938,1409100,124.01000213623048,121.77999877929688,119.59558868408205
02-10-2020,120.0,120.19000244140624,1356200,123.87999725341795,123.2699966430664,121.05885314941406
05-10-2020,124.1999969482422,124.1999969482422,1459600,126.48999786376952,125.91999816894533,123.66132354736328
06-10-2020,124.37000274658205,127.0,1714800,129.0399932861328,124.5500030517578,122.31591033935548
07-10-2020,126.4499969482422,126.55999755859376,1383400,129.67999267578125,128.94000244140625,126.62715911865234
08-10-2020,131.3000030517578,132.22999572753906,3161300,136.50999450683594,134.99000549316406,132.5686492919922
09-10-2020,133.4499969482422,135.4600067138672,2083700,137.0,135.8800048828125,133.44265747070312
12-10-2020,134.50999450683594,136.35000610351562,1312100,137.0800018310547,136.0500030517578,133.609619140625
13-10-2020,133.1199951171875,135.22000122070312,1322200,135.99000549316406,133.57000732421875,131.17410278320312
14-10-2020,133.8000030517578,133.8000030517578,946300,135.72000122070312,134.58999633789062,132.17581176757812
15-10-2020,132.5,132.55999755859375,1261800,137.2899932861328,136.74000549316406,134.28724670410156
16-10-2020,136.0800018310547,137.33999633789062,1281300,138.38999938964844,137.16000366210938,134.69972229003906
19-10-2020,134.32000732421875,137.19000244140625,1490400,138.39999389648438,134.32000732421875,131.91065979003906
20-10-2020,133.61000061035156,135.55999755859375,1684300,137.69000244140625,134.6300048828125,132.21510314941406
21-10-2020,133.9600067138672,134.97000122070312,1208000,137.47999572753906,134.02999877929688,131.6258544921875
22-10-2020,132.80999755859375,134.64999389648438,1128100,135.11000061035156,133.6999969482422,131.30177307128906
23-10-2020,133.91000366210938,135.11000061035156,980600,135.99000549316406,134.27000427246094,131.86155700683594
26-10-2020,129.4600067138672,132.5,1203700,132.82000732421875,131.3300018310547,128.97427368164062
27-10-2020,127.3000030517578,131.1300048828125,1193600,131.6999969482422,127.38999938964844,125.1049575805664
28-10-2020,124.5,124.62000274658205,1464500,127.58000183105467,125.20999908447266,122.96405792236328
29-10-2020,123.5199966430664,124.70999908447266,1238800,129.3800048828125,128.10000610351562,125.80223083496094
30-10-2020,126.8000030517578,127.4800033569336,2202400,130.00999450683594,129.72000122070312,127.39317321777344
02-11-2020,130.80999755859375,131.83999633789062,1938900,135.89999389648438,135.17999267578125,132.75523376464844
03-11-2020,134.63999938964844,136.4600067138672,1479500,138.02999877929688,136.86000061035156,134.4051055908203
04-11-2020,131.14999389648438,135.19000244140625,1866100,136.07000732421875,132.80999755859375,130.427734375
05-11-2020,135.3800048828125,135.5,1176500,139.6300048828125,138.25999450683594,135.77996826171875
06-11-2020,137.0399932861328,138.4600067138672,809800,139.60000610351562,138.75999450683594,136.27101135253906
09-11-2020,139.9199981689453,146.41000366210938,1783800,149.33999633789062,141.8699951171875,139.8695526123047
10-11-2020,140.89999389648438,142.11000061035156,1141500,143.97000122070312,142.82000732421875,140.80616760253906
11-11-2020,141.2899932861328,143.77000427246094,1105300,143.77000427246094,142.64999389648438,140.6385498046875
12-11-2020,138.41000366210938,141.75,768200,142.22999572753906,139.8699951171875,137.89773559570312
13-11-2020,140.6999969482422,141.22999572753906,748900,143.22999572753906,142.82000732421875,140.80616760253906
16-11-2020,142.89999389648438,145.0,1043800,145.6699981689453,144.27000427246094,142.23570251464844
17-11-2020,140.5500030517578,143.0500030517578,917100,143.72999572753906,143.27000427246094,141.24981689453125
18-11-2020,142.69000244140625,144.0800018310547,873800,144.8699951171875,142.8000030517578,140.78643798828125
19-11-2020,140.66000366210938,142.02999877929688,745300,143.77999877929688,143.22000122070312,141.2004852294922
20-11-2020,141.3300018310547,142.9600067138672,915500,143.89999389648438,143.0399932861328,141.02304077148438
23-11-2020,143.5500030517578,144.19000244140625,822600,145.69000244140625,144.77999877929688,142.73849487304688
24-11-2020,145.88999938964844,146.39999389648438,1480700,148.08999633789062,147.92999267578125,145.84408569335938
25-11-2020,145.8300018310547,147.5,779200,147.8300018310547,146.69000244140625,144.62158203125
27-11-2020,146.4199981689453,146.99000549316406,321900,147.89999389648438,147.77999877929688,145.6962127685547
30-11-2020,144.35000610351562,147.3000030517578,1414900,147.35000610351562,146.77000427246094,144.700439453125
01-12-2020,147.83999633789062,149.16000366210938,1253900,149.8800048828125,149.11000061035156,147.00746154785156
02-12-2020,146.86000061035156,148.6300048828125,801300,149.3000030517578,147.11000061035156,145.03565979003906
03-12-2020,145.16000366210938,147.16000366210938,992800,148.02999877929688,145.42999267578125,143.37933349609375
04-12-2020,146.02999877929688,146.27999877929688,1112500,147.74000549316406,146.92999267578125,144.85818481445312
07-12-2020,144.72000122070312,146.5,917100,146.89999389648438,144.89999389648438,142.85679626464844
08-12-2020,143.97000122070312,144.17999267578125,1024200,145.8300018310547,144.8800048828125,142.83709716796875
09-12-2020,143.52000427246094,145.1999969482422,959100,145.80999755859375,145.38999938964844,143.33990478515625
10-12-2020,142.61000061035156,144.4600067138672,1115200,145.44000244140625,143.3300018310547,141.3089599609375
11-12-2020,141.4199981689453,142.33999633789062,1223800,143.4600067138672,142.92999267578125,140.91458129882812
14-12-2020,141.3699951171875,143.8000030517578,995700,144.00999450683594,141.75999450683594,139.76109313964844
15-12-2020,142.42999267578125,143.19000244140625,1210000,144.69000244140625,144.1199951171875,142.0878143310547
16-12-2020,142.17999267578125,144.86000061035156,1166100,145.33999633789062,142.88999938964844,140.87515258789062
17-12-2020,142.5800018310547,144.0500030517578,850700,144.60000610351562,144.2899932861328,142.2554168701172
18-12-2020,142.3699951171875,144.25999450683594,2417500,145.91000366210938,145.42999267578125,143.37933349609375
21-12-2020,142.3300018310547,143.6699981689453,900200,146.80999755859375,146.10000610351562,144.03990173339844
22-12-2020,143.88999938964844,146.50999450683594,1079700,146.52000427246094,144.6999969482422,142.65963745117188
23-12-2020,143.8699951171875,144.7100067138672,948400,146.11000061035156,143.8699951171875,141.84133911132812
24-12-2020,143.14999389648438,143.8000030517578,300800,145.30999755859375,145.0,142.95541381835938
28-12-2020,143.1699981689453,145.63999938964844,1154500,146.9499969482422,143.1699981689453,141.1511993408203
29-12-2020,141.32000732421875,143.80999755859375,884600,144.0399932861328,142.89999389648438,140.88499450683594
30-12-2020,142.85000610351562,143.2100067138672,987800,144.32000732421875,143.22000122070312,141.2004852294922
31-12-2020,141.92999267578125,143.0399932861328,930000,144.44000244140625,144.22000122070312,142.1864013671875
04-01-2021,140.8300018310547,144.66000366210938,1223300,145.0,141.30999755859375,139.3174285888672
05-01-2021,141.57000732421875,141.61000061035156,1316400,144.75999450683594,144.33999633789062,142.30470275878906
06-01-2021,145.49000549316406,145.49000549316406,1871600,149.80999755859375,148.92999267578125,146.82997131347656
07-01-2021,149.44000244140625,149.72999572753906,1537100,151.32000732421875,150.8300018310547,148.70318603515625
08-01-2021,147.42999267578125,150.61000061035156,1141400,150.9499969482422,148.3000030517578,146.20887756347656
11-01-2021,146.35000610351562,146.9199981689453,1116000,149.9600067138672,149.4499969482422,147.34266662597656
12-01-2021,148.4499969482422,149.19000244140625,1071300,152.3000030517578,151.27999877929688,149.1468505859375
13-01-2021,149.91000366210938,150.8800048828125,1361300,153.05999755859375,152.00999450683594,149.8665313720703
14-01-2021,151.22000122070312,153.5,1635700,153.80999755859375,151.75,149.61021423339844
15-01-2021,146.42999267578125,150.36000061035156,2938500,150.89999389648438,148.0399932861328,145.95252990722656
19-01-2021,144.9600067138672,148.44000244140625,1904200,149.38999938964844,145.0399932861328,142.99484252929688
20-01-2021,142.77000427246094,146.0,1265200,146.41000366210938,144.5500030517578,142.51174926757812
21-01-2021,142.61000061035156,145.1199951171875,1737400,145.27999877929688,143.52999877929688,141.5061492919922
22-01-2021,137.55999755859375,138.75,2543000,142.17999267578125,137.82000732421875,135.87664794921875
25-01-2021,135.1699981689453,137.55999755859375,1940900,141.22000122070312,140.60000610351562,138.61744689941406
26-01-2021,140.64999389648438,142.72000122070312,1447300,143.25,141.00999450683594,139.0216522216797
27-01-2021,136.44000244140625,138.4199981689453,2282000,140.42999267578125,139.9499969482422,137.97662353515625
28-01-2021,139.07000732421875,141.52000427246094,1800900,143.14999389648438,139.13999938964844,137.17803955078125
29-01-2021,133.77999877929688,137.9499969482422,1949100,138.22000122070312,134.7100067138672,132.81053161621094
01-02-2021,134.9199981689453,135.86000061035156,1963000,138.94000244140625,138.5800018310547,136.6259307861328
02-02-2021,138.2899932861328,139.99000549316406,2201300,142.39999389648438,140.52999877929688,138.54843139648438
03-02-2021,139.32000732421875,139.92999267578125,1426800,141.44000244140625,139.91000366210938,137.93716430664062
04-02-2021,139.1300048828125,140.0500030517578,1681300,140.8800048828125,139.25999450683594,137.2963409423828
05-02-2021,138.1699981689453,140.6300048828125,1921800,140.97999572753906,140.11000061035156,138.1343536376953
08-02-2021,139.61000061035156,141.39999389648438,1116800,141.6999969482422,140.22000122070312,138.24281311035156
09-02-2021,137.10000610351562,140.3699951171875,1526600,140.6300048828125,137.2899932861328,135.35411071777344
10-02-2021,136.9600067138672,138.35000610351562,1314100,138.88999938964844,137.9600067138672,136.01466369628906
11-02-2021,137.02999877929688,138.4499969482422,818700,139.2899932861328,138.05999755859375,136.11326599121094
12-02-2021,136.77999877929688,137.08999633789062,927400,138.8699951171875,138.5500030517578,136.59637451171875
16-02-2021,136.39999389648438,139.5,804500,139.5,137.35000610351562,135.4132843017578
17-02-2021,134.75,136.19000244140625,917200,137.64999389648438,136.60000610351562,134.6738739013672
18-02-2021,134.6699981689453,135.50999450683594,939500,136.74000549316406,136.2899932861328,134.90150451660156
19-02-2021,135.91000366210938,136.7100067138672,1331600,137.80999755859375,136.6699981689453,135.2776336669922
22-02-2021,134.17999267578125,135.5,1828500,136.55999755859375,134.4499969482422,133.08023071289062
23-02-2021,132.10000610351562,134.77000427246094,1405000,135.80999755859375,134.97000122070312,133.594970703125
24-02-2021,135.38999938964844,135.47999572753906,904200,137.94000244140625,136.88999938964844,135.4954071044922
25-02-2021,133.9600067138672,136.5,1033000,137.11000061035156,134.97000122070312,133.594970703125
26-02-2021,133.67999267578125,135.3699951171875,1521200,136.0,134.82000732421875,133.4464874267578
01-03-2021,136.02999877929688,136.02999877929688,959400,138.8699951171875,137.85000610351562,136.44561767578125
02-03-2021,137.9600067138672,137.9600067138672,2242000,142.38999938964844,140.77000427246094,139.3358612060547
03-03-2021,139.57000732421875,140.75999450683594,1473500,141.39999389648438,139.6199951171875,138.19757080078125
04-03-2021,135.0800018310547,139.58999633789062,1738700,140.3000030517578,137.8300018310547,136.4258270263672
05-03-2021,138.10000610351562,138.66000366210938,1348700,142.80999755859375,142.61000061035156,141.15711975097656
08-03-2021,142.41000366210938,142.7100067138672,1693600,148.44000244140625,146.10000610351562,144.611572265625
09-03-2021,145.74000549316406,146.97000122070312,1733100,148.07000732421875,146.07000732421875,144.58187866210938
10-03-2021,146.36000061035156,146.57000732421875,1099000,149.99000549316406,148.47999572753906,146.96731567382812
11-03-2021,145.82000732421875,148.6300048828125,1263500,149.14999389648438,146.07000732421875,144.58187866210938
12-03-2021,144.07000732421875,146.64999389648438,1322000,147.5399932861328,145.3000030517578,143.81971740722656
15-03-2021,142.69000244140625,144.75999450683594,1533800,145.50999450683594,145.0500030517578,143.572265625
16-03-2021,142.57000732421875,145.3300018310547,1196900,145.83999633789062,144.8000030517578,143.32481384277344
17-03-2021,144.5,145.1699981689453,1003000,146.94000244140625,146.55999755859375,145.06686401367188
18-03-2021,145.74000549316406,146.89999389648438,1259800,150.22000122070312,149.8000030517578,148.27386474609375
19-03-2021,147.27999877929688,149.1999969482422,1901600,149.25,147.4199981689453,145.91812133789062
22-03-2021,146.67999267578125,147.8000030517578,1054900,148.2899932861328,147.94000244140625,146.4328155517578
23-03-2021,146.7899932861328,147.6699981689453,1364900,149.4600067138672,147.47000122070312,145.9676055908203
24-03-2021,147.49000549316406,147.49000549316406,1136300,150.52999877929688,148.16000366210938,146.6505889892578
25-03-2021,147.38999938964844,148.4499969482422,1408600,152.50999450683594,152.33999633789062,150.78799438476562
26-03-2021,151.92999267578125,153.3699951171875,1405500,154.94000244140625,154.82000732421875,153.24273681640625
29-03-2021,154.1699981689453,154.97999572753906,1077400,156.2100067138672,155.52000427246094,153.93560791015625
30-03-2021,152.5399932861328,155.25,1416400,156.57000732421875,152.7899932861328,151.23341369628906
31-03-2021,149.89999389648438,152.41000366210938,1662600,153.1199951171875,150.25999450683594,148.72918701171875
01-04-2021,148.9600067138672,150.25999450683594,1670000,152.0399932861328,151.9600067138672,150.411865234375
05-04-2021,151.4499969482422,151.5,2452200,154.11000061035156,153.55999755859375,151.99557495117188
06-04-2021,152.27999877929688,153.3699951171875,1643500,154.02999877929688,153.57000732421875,152.00547790527344
07-04-2021,146.82000732421875,153.5399932861328,2148700,153.92999267578125,147.97000122070312,146.46250915527344
08-04-2021,146.72999572753906,148.0399932861328,1641200,150.00999450683594,148.0500030517578,146.54171752929688
09-04-2021,148.60000610351562,149.1199951171875,1014000,150.57000732421875,150.47000122070312,148.9370574951172
12-04-2021,150.16000366210938,150.49000549316406,1256600,152.22000122070312,151.38999938964844,149.84767150878906
13-04-2021,149.24000549316406,150.6699981689453,1092000,151.4499969482422,151.07000732421875,149.5309295654297
14-04-2021,150.25999450683594,150.74000549316406,1674500,152.47000122070312,150.8699951171875,149.33297729492188
15-04-2021,151.6199951171875,152.2100067138672,1852800,154.00999450683594,153.97000122070312,152.40139770507812
16-04-2021,166.91000366210938,169.2899932861328,7097800,172.6699981689453,167.41000366210938,165.7044677734375
19-04-2021,165.89999389648438,167.5399932861328,2069100,169.94000244140625,168.77999877929688,167.0605010986328
20-04-2021,168.3000030517578,169.00999450683594,1399900,170.83999633789062,169.0,167.2782745361328
21-04-2021,169.22999572753906,169.9199981689453,1575300,173.8800048828125,173.57000732421875,171.8017120361328
22-04-2021,171.0,173.07000732421875,1243000,174.36000061035156,171.55999755859375,169.81219482421875
23-04-2021,171.22000122070312,171.5,1143200,175.07000732421875,174.64999389648438,172.87069702148438
26-04-2021,172.74000549316406,175.74000549316406,1076800,176.6300048828125,173.1300048828125,171.36619567871094
27-04-2021,171.0,172.0,1598800,172.9499969482422,172.22999572753906,170.475341796875
28-04-2021,171.88999938964844,172.69000244140625,1211200,173.67999267578125,172.5500030517578,170.79209899902344
29-04-2021,171.5399932861328,172.6999969482422,755000,173.41000366210938,173.19000244140625,171.4255828857422
30-04-2021,170.1199951171875,172.88999938964844,1777000,173.8800048828125,171.24000549316406,169.49545288085938
03-05-2021,172.11000061035156,172.63999938964844,654200,173.99000549316406,173.00999450683594,171.24742126464844
04-05-2021,171.97999572753906,171.97999572753906,1945900,179.55999755859375,178.75,176.92893981933594
05-05-2021,176.38999938964844,177.64999389648438,994100,179.82000732421875,179.0399932861328,177.2159881591797
06-05-2021,177.91000366210938,179.99000549316406,962600,180.2100067138672,180.08999633789062,178.25527954101562
07-05-2021,177.8800048828125,179.5500030517578,723800,179.82000732421875,179.49000549316406,178.19570922851562
10-05-2021,179.22000122070312,180.52999877929688,1171400,181.3500061035156,179.27000427246094,177.97731018066406
11-05-2021,176.41000366210938,179.4600067138672,953300,179.6300048828125,178.99000549316406,177.69931030273438
12-05-2021,173.4199981689453,178.1699981689453,1261400,178.6199951171875,173.85000610351562,172.5963897705078
13-05-2021,173.61000061035156,174.72999572753906,1147800,178.4499969482422,178.0399932861328,176.75616455078125
14-05-2021,177.2100067138672,178.1300048828125,658500,179.85000610351562,179.10000610351562,177.80853271484375
17-05-2021,177.52999877929688,178.82000732421875,1046400,180.4600067138672,179.9600067138672,178.66233825683594
18-05-2021,177.11000061035156,180.25999450683597,1275200,180.5200042724609,177.16000366210938,175.8825225830078
19-05-2021,173.9499969482422,176.0399932861328,949000,176.6199951171875,176.35000610351562,175.078369140625
20-05-2021,176.49000549316406,176.66000366210938,1032900,178.8699951171875,177.47999572753906,176.20021057128906
21-05-2021,178.38999938964844,178.72000122070312,883100,180.97000122070312,178.4499969482422,177.1632080078125
24-05-2021,178.3300018310547,179.77000427246094,700500,180.38999938964844,179.57000732421875,178.27513122558594
25-05-2021,178.9199981689453,179.41000366210938,660100,180.3000030517578,179.10000610351562,177.80853271484375
26-05-2021,178.16000366210938,178.5500030517578,767600,179.39999389648438,178.75,177.4610595703125
27-05-2021,179.4199981689453,179.9600067138672,3182800,181.13999938964844,180.7899932861328,179.486328125
28-05-2021,178.5500030517578,180.80999755859372,883500,181.3500061035156,179.72000122070312,178.42405700683594
01-06-2021,179.6699981689453,182.1100006103516,1227400,182.9499969482422,180.75,179.44664001464844
02-06-2021,178.89999389648438,181.47999572753903,1332500,181.97999572753903,180.33999633789065,179.03958129882812
03-06-2021,178.8300018310547,179.50999450683594,1148200,181.1100006103516,180.9900054931641,179.6848907470703
04-06-2021,180.72000122070312,181.8500061035156,524000,182.5800018310547,182.3300018310547,181.01524353027344
07-06-2021,179.3300018310547,182.8500061035156,815800,182.97000122070312,179.97999572753906,178.6821746826172
08-06-2021,177.24000549316406,179.3000030517578,1092100,179.57000732421875,179.07000732421875,177.77874755859375
09-06-2021,176.72999572753906,178.36000061035156,992800,178.9499969482422,177.11000061035156,175.83287048339844
10-06-2021,176.50999450683594,178.69000244140625,816500,178.69000244140625,177.38999938964844,176.11085510253906
11-06-2021,176.61000061035156,178.39999389648438,557000,178.9199981689453,177.52999877929688,176.24984741210938
14-06-2021,174.07000732421875,177.1699981689453,588000,177.57000732421875,175.3800048828125,174.1153564453125
15-06-2021,174.49000549316406,176.13999938964844,801600,176.74000549316406,176.35000610351562,175.078369140625
16-06-2021,174.22999572753906,175.6699981689453,769500,176.27999877929688,174.72000122070312,173.46011352539062
17-06-2021,168.9199981689453,174.83999633789062,1223600,174.86000061035156,171.16000366210938,169.92578125
18-06-2021,167.86000061035156,169.11000061035156,1777200,170.30999755859375,168.1199951171875,166.90768432617188
21-06-2021,169.14999389648438,169.7899932861328,976700,172.1699981689453,171.63999938964844,170.40232849121094
22-06-2021,170.86000061035156,172.47999572753906,785000,173.10000610351562,171.50999450683594,170.27325439453125
23-06-2021,169.47000122070312,171.4499969482422,710500,171.64999389648438,169.69000244140625,168.4663848876953
24-06-2021,168.4199981689453,170.49000549316406,794600,170.74000549316406,169.52000427246094,168.297607421875
25-06-2021,166.67999267578125,170.0,3390500,170.75999450683594,167.2100067138672,166.0042724609375
28-06-2021,165.50999450683594,167.86000061035156,1762800,168.5800018310547,168.44000244140625,167.2253875732422
29-06-2021,167.97999572753906,169.5399932861328,871800,170.85000610351562,168.55999755859375,167.3445281982422
30-06-2021,167.5800018310547,167.86000061035156,1143900,170.10000610351562,169.77000427246094,168.54580688476562
01-07-2021,169.13999938964844,170.9499969482422,758200,171.3800048828125,169.99000549316406,168.76422119140625
02-07-2021,168.66000366210938,169.80999755859375,608000,170.9199981689453,170.66000366210938,169.42938232421875
06-07-2021,166.6999969482422,170.0,996300,170.22000122070312,169.00999450683594,167.79129028320312
07-07-2021,168.58999633789062,168.58999633789062,941500,172.52000427246094,172.3000030517578,171.0575714111328
08-07-2021,167.99000549316406,170.2899932861328,927700,170.60000610351562,168.97000122070312,167.75157165527344
09-07-2021,169.91000366210938,170.9499969482422,852200,172.30999755859375,171.41000366210938,170.17398071289062
12-07-2021,169.25999450683594,169.9600067138672,565100,172.32000732421875,172.0800018310547,170.83914184570312
13-07-2021,169.49000549316406,171.85000610351562,664900,171.85000610351562,169.94000244140625,168.71456909179688
14-07-2021,168.86000061035156,170.02999877929688,640100,171.5,170.08999633789062,168.86349487304688
15-07-2021,169.2100067138672,169.2100067138672,680600,171.80999755859375,171.47999572753906,170.24346923828125
16-07-2021,169.05999755859375,171.85000610351562,957500,171.85000610351562,170.1999969482422,168.97268676757812
19-07-2021,164.17999267578125,167.07000732421875,1623400,168.13999938964844,165.75,164.55477905273438
20-07-2021,152.35000610351562,154.8000030517578,4015400,159.1300048828125,158.49000549316406,157.34713745117188
21-07-2021,157.10000610351562,158.97999572753906,2045500,160.92999267578125,159.77000427246094,158.617919921875
22-07-2021,159.32000732421875,160.14999389648438,1322400,160.97999572753906,160.5,159.3426513671875
23-07-2021,161.22000122070312,161.52000427246094,1156500,163.39999389648438,162.9199981689453,161.7451934814453
26-07-2021,162.91000366210938,164.22000122070312,1428200,165.07000732421875,164.94000244140625,163.75062561035156
27-07-2021,162.75,163.88999938964844,1740600,165.67999267578125,165.13999938964844,163.94918823242188
28-07-2021,162.72000122070312,165.24000549316406,1702800,165.8000030517578,163.35000610351562,162.17210388183594
29-07-2021,162.25,164.30999755859375,1455600,164.58999633789062,162.86000061035156,161.6856231689453
30-07-2021,162.38999938964844,163.0800018310547,1297200,165.05999755859375,163.52000427246094,162.3408660888672
02-08-2021,163.0,164.8000030517578,849500,166.85000610351562,163.3000030517578,162.12246704101562
03-08-2021,162.2899932861328,163.82000732421875,844400,165.7100067138672,165.6300048828125,164.43565368652344
04-08-2021,163.75,164.27000427246094,1212400,165.94000244140625,163.80999755859375,162.62876892089844
05-08-2021,162.8000030517578,165.25999450683594,1218100,165.9199981689453,162.9499969482422,161.7749786376953
06-08-2021,163.63999938964844,164.14999389648438,813200,164.99000549316406,164.22999572753906,163.04574584960938
09-08-2021,162.36000061035156,163.97999572753906,738800,164.5800018310547,164.3000030517578,163.703369140625
10-08-2021,164.5,164.55999755859375,1026500,167.61000061035156,167.36000061035156,166.7522430419922
11-08-2021,166.58999633789062,167.6300048828125,998700,170.25999450683594,170.19000244140625,169.5719757080078
12-08-2021,167.86000061035156,169.75999450683594,909900,170.6199951171875,170.38999938964844,169.771240234375
13-08-2021,168.89999389648438,170.42999267578125,528400,170.42999267578125,169.77999877929688,169.1634521484375
16-08-2021,167.61000061035156,169.2899932861328,578900,169.6999969482422,169.38999938964844,168.77487182617188
17-08-2021,164.33999633789062,168.3699951171875,816100,168.4600067138672,166.58999633789062,165.98504638671875
18-08-2021,164.39999389648438,165.9600067138672,648100,166.5500030517578,164.50999450683594,163.91259765625
19-08-2021,160.94000244140625,162.77000427246094,958000,163.77000427246094,161.13999938964844,160.55484008789062
20-08-2021,159.8699951171875,161.4199981689453,1131600,162.52999877929688,161.1199951171875,160.53489685058594
23-08-2021,161.1300048828125,161.67999267578125,698700,163.22000122070312,162.36000061035156,161.77040100097656
24-08-2021,162.19000244140625,162.97999572753906,649800,163.49000549316406,162.8800048828125,162.28851318359375
25-08-2021,161.10000610351562,163.2100067138672,885000,163.6699981689453,163.38999938964844,162.79666137695312
26-08-2021,161.00999450683594,163.22999572753906,662100,163.27000427246094,161.14999389648438,160.56478881835938
27-08-2021,161.47999572753906,161.94000244140625,647300,162.91000366210938,161.83999633789062,161.25228881835938
30-08-2021,161.6699981689453,162.8699951171875,495700,163.02999877929688,161.7100067138672,161.12277221679688
31-08-2021,158.67999267578125,161.4199981689453,1244900,161.72999572753906,159.5500030517578,158.97061157226562
01-09-2021,156.52000427246094,159.52999877929688,1057900,159.63999938964844,157.75,157.17713928222656
02-09-2021,157.7100067138672,158.0,1037300,159.85000610351562,158.6300048828125,158.053955078125
03-09-2021,155.35000610351562,158.25999450683594,1123000,158.92999267578125,155.66000366210938,155.09474182128906
07-09-2021,149.0,149.49000549316406,2030100,153.64999389648438,150.39999389648438,149.8538360595703
08-09-2021,148.61000061035156,149.4499969482422,2772500,151.3699951171875,151.02000427246094,150.47158813476562
09-09-2021,148.9199981689453,148.9199981689453,2382500,155.61000061035156,154.55999755859375,153.9987335205078
10-09-2021,153.00999450683594,154.88999938964844,1276600,155.8800048828125,153.02999877929688,152.4742889404297
13-09-2021,151.6199951171875,154.5,1060900,154.99000549316406,152.50999450683594,151.95616149902344
14-09-2021,149.97000122070312,153.27000427246094,967400,153.27000427246094,150.3300018310547,149.78408813476562
15-09-2021,149.9499969482422,150.10000610351562,1001400,151.6199951171875,150.7100067138672,150.1627197265625
16-09-2021,149.0500030517578,150.72000122070312,776500,150.83999633789062,149.7899932861328,149.2460479736328
17-09-2021,146.35000610351562,148.75,1888100,149.6999969482422,146.74000549316406,146.20713806152344
20-09-2021,143.8000030517578,144.13999938964844,1139600,146.5500030517578,146.30999755859375,145.7786865234375
21-09-2021,145.27000427246094,147.3000030517578,854000,147.89999389648438,145.66000366210938,145.1310577392578
22-09-2021,145.14999389648438,146.82000732421875,950900,147.3000030517578,145.25999450683594,144.7324981689453
23-09-2021,146.30999755859375,146.44000244140625,1040600,147.97999572753906,146.52000427246094,145.98793029785156
24-09-2021,146.25999450683594,146.60000610351562,1142500,149.17999267578125,148.5800018310547,148.0404510498047
27-09-2021,147.94000244140625,148.8300018310547,980800,150.3000030517578,148.16000366210938,147.62197875976562
28-09-2021,145.67999267578125,148.0,901300,149.02000427246094,146.08999633789062,145.55947875976562
29-09-2021,144.8699951171875,145.6699981689453,973100,147.49000549316406,145.75,145.22071838378906
30-09-2021,143.0,146.5800018310547,1089500,147.1300048828125,143.00999450683594,142.49066162109375
01-10-2021,141.80999755859375,143.63999938964844,1198700,145.27000427246094,144.00999450683594,143.48703002929688
04-10-2021,142.4600067138672,144.0,1416700,145.88999938964844,144.00999450683594,143.48703002929688
05-10-2021,143.52000427246094,144.66000366210938,1272800,147.00999450683594,145.85000610351562,145.3203582763672
06-10-2021,143.0800018310547,144.60000610351562,1324300,146.8800048828125,146.75,146.2170867919922
07-10-2021,147.92999267578125,148.1199951171875,1726600,151.6699981689453,150.47999572753906,149.9335479736328
08-10-2021,149.38999938964844,150.47000122070312,976600,151.30999755859375,150.74000549316406,150.19261169433594
11-10-2021,151.22999572753906,151.7100067138672,1272400,153.72999572753906,151.86000061035156,151.30853271484375
12-10-2021,151.0,151.74000549316406,1435800,153.3000030517578,152.8000030517578,152.2451171875
13-10-2021,152.00999450683594,153.75999450683594,1287500,155.0399932861328,154.67999267578125,154.1182861328125
14-10-2021,155.05999755859375,155.82000732421875,1580400,159.05999755859375,158.8800048828125,158.30303955078125
15-10-2021,158.5399932861328,159.64999389648438,1369200,161.64999389648438,160.3000030517578,159.71788024902344
18-10-2021,157.3300018310547,159.4499969482422,1820700,159.8699951171875,157.39999389648438,156.8284149169922
19-10-2021,157.2100067138672,158.27999877929688,1258600,159.11000061035156,158.94000244140625,158.36282348632812
20-10-2021,156.57000732421875,160.55999755859375,1739100,161.19000244140625,160.42999267578125,159.847412109375
21-10-2021,156.9199981689453,156.9199981689453,2543300,165.16000366210938,165.0,164.40081787109375
22-10-2021,161.52000427246094,162.44000244140625,1543700,164.9499969482422,161.72000122070312,161.1327362060547
25-10-2021,158.49000549316406,162.1999969482422,1817700,162.1999969482422,160.07000732421875,159.4887237548828
26-10-2021,159.57000732421875,160.11000061035156,1004800,162.57000732421875,161.8699951171875,161.2821807861328
27-10-2021,160.25999450683594,161.8300018310547,1048300,162.82000732421875,161.52000427246094,160.93345642089844
28-10-2021,161.6699981689453,162.1199951171875,1270500,163.72999572753906,162.97999572753906,162.38815307617188
29-10-2021,159.4199981689453,162.2100067138672,2067400,164.0,160.57000732421875,159.98690795898438
01-11-2021,158.33999633789062,160.4199981689453,787200,161.22999572753906,159.02999877929688,158.45249938964844
02-11-2021,159.41000366210938,160.1199951171875,1340400,162.2899932861328,161.88999938964844,161.30210876464844
03-11-2021,160.0399932861328,161.24000549316406,1216400,163.61000061035156,162.80999755859375,162.21876525878906
04-11-2021,162.27000427246094,162.88999938964844,756100,164.27999877929688,163.25,162.65716552734375
05-11-2021,162.8300018310547,163.9199981689453,991000,165.64999389648438,163.08999633789062,162.49774169921875
08-11-2021,162.11000061035156,163.25999450683594,1129100,164.82000732421875,162.47000122070312,161.8800048828125
09-11-2021,161.0399932861328,162.02999877929688,1151500,163.9600067138672,161.4499969482422,161.4499969482422
10-11-2021,160.47000122070312,161.60000610351562,2943400,163.3699951171875,160.72999572753906,160.72999572753906
11-11-2021,158.5,160.5,1985800,160.8800048828125,159.50999450683594,159.50999450683594
12-11-2021,159.17999267578125,159.77000427246094,3076200,161.91000366210938,161.63999938964844,161.63999938964844
15-11-2021,160.25,161.97000122070312,1091600,162.94000244140625,162.92999267578125,162.92999267578125
16-11-2021,162.92999267578125,163.39999389648438,1500700,166.97000122070312,164.83999633789062,164.83999633789062
17-11-2021,163.41000366210938,164.2899932861328,1000600,165.08999633789062,164.3000030517578,164.3000030517578
18-11-2021,162.02999877929688,164.4499969482422,916500,164.8699951171875,162.35000610351562,162.35000610351562
19-11-2021,160.38999938964844,162.42999267578125,793800,162.88999938964844,160.83999633789062,160.83999633789062
22-11-2021,161.22000122070312,161.44000244140625,585700,163.02000427246094,161.2899932861328,161.2899932861328
23-11-2021,159.7899932861328,161.35000610351562,907100,162.35000610351562,160.42999267578125,160.42999267578125
24-11-2021,158.0399932861328,159.72000122070312,846300,160.25,158.75999450683594,158.75999450683594
26-11-2021,153.11000061035156,155.1199951171875,695000,156.38999938964844,155.60000610351562,155.60000610351562
29-11-2021,156.22000122070312,156.89999389648438,1277900,158.4499969482422,157.36000061035156,157.36000061035156
30-11-2021,153.8300018310547,155.83999633789062,2322700,157.85000610351562,154.1699981689453,154.1699981689453
01-12-2021,153.39999389648438,156.35000610351562,1096600,159.0500030517578,153.47999572753906,153.47999572753906
02-12-2021,154.22999572753906,154.33999633789062,1173000,159.83999633789062,159.02999877929688,159.02999877929688
03-12-2021,158.4499969482422,158.8300018310547,1507500,161.99000549316406,160.38999938964844,160.38999938964844
06-12-2021,162.27999877929688,162.63999938964844,1256100,166.3300018310547,164.42999267578125,164.42999267578125
07-12-2021,165.69000244140625,166.36000061035156,1160900,167.8699951171875,166.27999877929688,166.27999877929688
08-12-2021,163.55999755859375,166.4499969482422,926500,167.22999572753906,164.82000732421875,164.82000732421875
09-12-2021,163.17999267578125,164.1199951171875,822300,165.0800018310547,164.0500030517578,164.0500030517578
10-12-2021,162.8699951171875,165.50999450683594,1095400,165.72999572753906,163.3699951171875,163.3699951171875
13-12-2021,162.13999938964844,163.30999755859375,946100,164.57000732421875,162.80999755859375,162.80999755859375
14-12-2021,162.0,162.75,837600,163.6199951171875,162.4600067138672,162.4600067138672
15-12-2021,161.94000244140625,163.02999877929688,1000500,165.94000244140625,165.86000061035156,165.86000061035156
16-12-2021,166.6199951171875,167.38999938964844,1591900,170.42999267578125,169.32000732421875,169.32000732421875
17-12-2021,164.4499969482422,168.9199981689453,2366700,169.30999755859375,164.58999633789062,164.58999633789062
20-12-2021,158.25,162.25999450683594,865900,162.25999450683594,160.67999267578125,160.67999267578125
21-12-2021,161.33999633789062,161.88999938964844,1085600,164.33999633789062,163.92999267578125,163.92999267578125
22-12-2021,163.39999389648438,163.39999389648438,1051600,166.7899932861328,165.74000549316406,165.74000549316406
23-12-2021,166.30999755859375,166.30999755859375,709100,168.32000732421875,167.05999755859375,167.05999755859375
27-12-2021,167.5399932861328,168.0399932861328,621600,170.0,169.74000549316406,169.74000549316406
28-12-2021,169.9499969482422,169.99000549316406,609700,171.8699951171875,171.19000244140625,171.19000244140625
29-12-2021,170.64999389648438,170.89999389648438,644900,172.27999877929688,171.2100067138672,171.2100067138672
30-12-2021,170.9600067138672,171.3800048828125,635300,172.77999877929688,171.08999633789062,171.08999633789062
31-12-2021,170.41000366210938,170.86000061035156,674900,172.97999572753906,172.44000244140625,172.44000244140625
03-01-2022,169.61000061035156,172.10000610351562,827600,172.91000366210938,170.60000610351562,170.60000610351562
04-01-2022,170.3000030517578,170.3300018310547,1802200,172.99000549316406,171.25,171.25
05-01-2022,171.22999572753906,172.0800018310547,1748800,177.32000732421875,173.10000610351562,173.10000610351562
06-01-2022,169.88999938964844,173.2100067138672,955400,173.3000030517578,170.6199951171875,170.6199951171875
07-01-2022,167.42999267578125,170.42999267578125,1113700,170.50999450683594,167.7100067138672,167.7100067138672
10-01-2022,164.89999389648438,167.00999450683594,1385900,167.5,166.19000244140625,166.19000244140625
11-01-2022,164.8800048828125,166.74000549316406,647300,169.02000427246094,168.80999755859375,168.80999755859375
12-01-2022,167.02999877929688,169.50999450683594,1212500,169.58999633789062,168.4499969482422,168.4499969482422
13-01-2022,168.25,169.41000366210938,1156300,171.1300048828125,168.82000732421875,168.82000732421875
14-01-2022,164.1699981689453,165.50999450683594,1479000,168.07000732421875,165.0,165.0
18-01-2022,160.27999877929688,163.02000427246094,1636900,163.92999267578125,163.7899932861328,163.7899932861328
19-01-2022,161.44000244140625,165.27000427246094,1287800,165.27000427246094,161.5500030517578,161.5500030517578
20-01-2022,159.14999389648438,161.19000244140625,1697200,162.77999877929688,159.6999969482422,159.6999969482422
21-01-2022,154.1699981689453,157.61000061035156,4334300,159.5,154.74000549316406,154.74000549316406
24-01-2022,149.1300048828125,150.0,1604300,155.6199951171875,155.02999877929688,155.02999877929688
25-01-2022,149.77000427246094,152.19000244140625,1391600,155.6199951171875,153.99000549316406,153.99000549316406
26-01-2022,152.16000366210938,154.88999938964844,1263400,156.41000366210938,153.49000549316406,153.49000549316406
27-01-2022,152.0,155.27000427246094,1348500,156.49000549316406,153.38999938964844,153.38999938964844
28-01-2022,150.25,153.19000244140625,921900,154.88999938964844,154.8300018310547,154.8300018310547
31-01-2022,153.13999938964844,153.60000610351562,1540400,156.52000427246094,156.1999969482422,156.1999969482422
01-02-2022,155.2899932861328,156.30999755859375,1556600,157.6999969482422,157.35000610351562,157.35000610351562
02-02-2022,155.9199981689453,157.75999450683594,2432100,159.1300048828125,157.6199951171875,157.6199951171875
03-02-2022,155.8800048828125,156.3800048828125,1717700,159.16000366210938,156.74000549316406,156.74000549316406
04-02-2022,152.2899932861328,155.3699951171875,1288900,156.14999389648438,152.99000549316406,152.99000549316406
07-02-2022,152.4499969482422,152.74000549316406,1609500,154.80999755859375,152.8300018310547,152.8300018310547
08-02-2022,152.8800048828125,153.72000122070312,1162500,154.60000610351562,154.25,154.25
09-02-2022,155.8300018310547,156.0800018310547,1441200,157.3800048828125,156.99000549316406,156.99000549316406
10-02-2022,153.0399932861328,155.77000427246094,1298800,157.5500030517578,153.80999755859375,153.80999755859375
11-02-2022,149.80999755859375,153.17999267578125,1145400,154.74000549316406,149.89999389648438,149.89999389648438
